1.5350
1.5350
1.5350
1.5350
1.5350
1.5350
1.5350
1.5550
1.5550
1.5400
1.5300
1.5200
1.4950
1.4850
1.4500
1.4000
1.3600
1.3300
1.3050
1.2750
1.2850
1.3050
1.3000
1.3100
1.3200
1.3100
1.3100
1.3050
1.3050
1.3050
1.2900
1.2900
1.2550
1.2550
1.2750
1.3000
1.3150
1.3150
1.2950
1.2700
1.2700
1.2550
1.2600
1.2600
1.2650
1.2650
1.2600
1.2700
1.2650
1.2800
1.2800
1.2900
1.3050
1.2900
1.3200
1.3350
1.3750
1.4700
1.6150
1.8000
1.9750
2.0950
2.1350
2.1300
2.1400
2.1700
2.2400
2.3550
2.4800
2.5950
2.6150
2.5250
2.2300
1.7950
1.2900
0.8700
0.5800
0.4500
0.3900
0.3600
0.3200
0.2500
0.2000
0.2000
0.2300
0.2950
0.3100
0.3250
0.3450
0.3850
0.4200
0.4700
0.5700
0.6850
0.8000
0.9250
1.0350
1.1400
1.1950
1.2300
1.2200
1.2000
1.2000
1.2300
1.2750
1.3100
1.2700
1.1900
1.1400
1.1600
1.2750
1.3850
1.4100
1.3750
1.3350
1.3000
1.2900
1.3300
1.3550
1.3750
1.3600
1.3250
1.2850
1.2550
1.2650
1.2650
1.2450
1.2300
1.1950
1.1850
1.1950
1.1850
1.1650
1.1700
1.1650
1.1700
1.2050
1.2400
1.2350
1.2200
1.1600
1.1450
1.1650
1.1550
1.1400
1.1050
1.1100
1.1600
1.2200
1.2200
1.1950
1.1650
1.1200
1.0500
0.9750
0.9000
0.8750
0.8850
0.9400
0.9950
1.0350
1.0950
1.1600
1.2150
1.2100
1.1550
1.1000
1.0700
1.0800
1.1100
1.1550
1.2000
1.2350
1.2800
1.3050
1.3300
1.3350
1.3450
1.3150
1.3000
1.3000
1.3300
1.3800
1.4100
1.4500
1.4850
1.4950
1.4800
1.4800
1.4550
1.4050
1.3650
1.3350
1.3300
1.3950
1.4650
1.4850
1.5200
1.5150
1.4650
1.4500
1.4150
1.3900
1.4150
1.4300
1.4350
1.4200
1.4100
1.4500
1.4550
1.4700
1.4400
1.4250
1.4250
1.4450
1.4550
1.4000
1.3350
1.3100
1.3200
1.3650
1.4300
1.4450
1.4500
1.4450
1.4400
1.4450
1.4400
1.4350
1.4450
1.4300
1.3850
1.3300
1.2950
1.3300
1.3950
1.4350
1.4650
1.4700
1.4100
1.3500
1.3000
1.3100
1.3500
1.4150
1.4800
1.5200
1.5000
1.4550
1.3950
1.3300
1.3250
1.3450
1.3950
1.4350
1.4650
1.4450
1.4300
1.4200
1.4150
1.3900
1.3950
1.3950
1.3850
1.3800
1.4050
1.4200
1.4400
1.4800
1.5050
1.4900
1.4950
1.4450
1.4100
1.4000
1.3900
1.4300
1.4700
1.4600
1.4500
1.4250
1.4550
1.5100
1.5500
1.5350
1.5000
1.4950
1.5150
1.5500
1.6100
1.6400
1.6700
1.6800
1.6700
1.6250
1.5900
1.5400
1.5400
1.5350
1.5500
1.5550
1.5300
1.5200
1.4950
1.5700
1.6450
1.6950
1.7200
1.7000
1.6300
1.5550
1.4700
1.4400
1.4600
1.4900
1.5300
1.5150
1.5000
1.4700
1.4200
1.3600
1.3200
1.2950
1.2850
1.2750
1.3000
1.3250
1.3700
1.4200
1.4400
1.4400
1.4150
1.3900
1.3600
1.3500
1.3750
1.3600
1.3700
1.3650
1.3600
1.3850
1.4050
1.4150
1.4600
1.4900
1.5050
1.4750
1.4000
1.3200
1.3100
1.3750
1.4600
1.5200
1.5200
1.4650
1.4200
1.3600
1.3750
1.4600
1.5850
1.7250
1.8800
1.9600
2.0000
2.0000
2.0000
2.0450
2.1850
2.4050
2.6500
2.7950
2.7800
2.5800
2.2000
1.7350
1.3150
1.0350
0.8550
0.7500
0.6700
0.5500
0.4200
0.3400
0.2600
0.2250
0.2200
0.2350
0.2700
0.2750
0.2750
0.2900
0.3100
0.3600
0.4350
0.4950
0.5250
0.5650
0.6650
0.7850
0.9250
1.0650
1.1650
1.2250
1.2550
1.2650
1.2550
1.2300
1.2000
1.2100
1.2650
1.3400
1.4000
1.4000
1.3750
1.3300
1.2900
1.2700
1.2800
1.3000
1.3200
1.3450
1.3650
1.3800
1.3600
1.3500
1.3100
1.3050
1.3000
1.3050
1.3250
1.3200
1.2950
1.2650
1.2400
1.2200
1.2000
1.1850
1.1650
1.1850
1.2000
1.2150
1.2150
1.2100
1.2100
1.2000
1.1800
1.1250
1.0750
1.0600
1.0800
1.1300
1.1850
1.2100
1.2050
1.1300
1.0500
0.9950
1.0150
1.1050
1.1700
1.2050
1.1950
1.1500
1.1050
1.0900
1.0800
1.1100
1.1650
1.1550
1.1650
1.1650
1.1850
1.1850
1.2050
1.2450
1.2950
1.3600
1.4000
1.3900
1.3700
1.3300
1.3250
1.3600
1.3950
1.4000
1.4250
1.4200
1.4250
1.4600
1.4800
1.4850
1.4500
1.4350
1.4700
1.5100
1.5400
1.5400
1.5150
1.4700
1.4350
1.4300
1.4250
1.4350
1.4550
1.5000
1.5400
1.5550
1.5450
1.5200
1.5050
1.5000
1.5000
1.5150
1.5300
1.5150
1.4650
1.4100
1.3950
1.4200
1.4700
1.5050
1.4950
1.4500
1.4400
1.4200
1.4350
1.4200
1.3800
1.3700
1.3850
1.4150
1.4500
1.4700
1.4950
1.5050
1.4900
1.4750
1.4750
1.4700
1.4400
1.4200
1.3900
1.4250
1.4750
1.5000
1.5000
1.4550
1.4250
1.4150
1.4300
1.4650
1.4650
1.4350
1.4100
1.4150
1.4300
1.4850
1.4950
1.5300
1.5250
1.5200
1.4900
1.4500
1.4450
1.4750
1.5150
1.5350
1.5150
1.5100
1.5100
1.5150
1.5050
1.4700
1.4650
1.4700
1.5000
1.5200
1.5400
1.5200
1.4750
1.4500
1.4250
1.4400
1.4600
1.4950
1.5050
1.5000
1.5150
1.5150
1.5100
1.5150
1.5350
1.5500
1.5800
1.5950
1.6150
1.6150
1.6350
1.6500
1.6500
1.6600
1.6600
1.6700
1.6650
1.6500
1.6200
1.6000
1.5650
1.5550
1.5850
1.6550
1.7000
1.7400
1.7150
1.6850
1.6500
1.6550
1.6700
1.6250
1.5500
1.4750
1.4450
1.4600
1.4850
1.5050
1.5350
1.5250
1.4900
1.4750
1.4650
1.4450
1.4350
1.4050
1.3950
1.3900
1.3850
1.3800
1.4050
1.4350
1.4650
1.4750
1.4450
1.4100
1.3800
1.3400
1.3450
1.3700
1.3950
1.3950
1.3750
1.3700
1.3950
1.4350
1.4300
1.4450
1.4150
1.3800
1.3600
1.3550
1.3650
1.3450
1.3350
1.3550
1.4550
1.6050
1.7600
1.9150
2.0200
2.0450
2.0150
1.9700
2.0000
2.1400
2.3650
2.6150
2.7900
2.8050
2.6300
2.2700
1.8350
1.3950
1.0350
0.7650
0.6000
0.5050
0.4700
0.4400
0.4250
0.3850
0.3250
0.2850
0.2500
0.2600
0.2850
0.2800
0.2850
0.3050
0.3500
0.4000
0.4650
0.5400
0.6150
0.7100
0.8400
0.9700
1.0850
1.1850
1.2500
1.2600
1.2550
1.2400
1.2200
1.2450
1.2650
1.3100
1.3550
1.3600
1.3800
1.4000
1.3900
1.3300
1.2450
1.1900
1.1700
1.2250
1.2850
1.3450
1.3750
1.4150
1.4150
1.3950
1.3650
1.2900
1.2200
1.1850
1.1950
1.2100
1.2250
1.2150
1.2150
1.2100
1.2100
1.1650
1.1300
1.0850
1.0650
1.0650
1.0750
1.1000
1.1300
1.1500
1.1700
1.1750
1.1450
1.1050
1.0850
1.0500
1.0300
1.0100
1.0100
1.0150
1.0650
1.1300
1.1600
1.1600
1.1700
1.1400
1.1050
1.0800
1.0550
1.0350
1.0500
1.0600
1.0950
1.1250
1.1700
1.2000
1.2050
1.2450
1.2450
1.2750
1.3050
1.3150
1.3350
1.3500
1.3550
1.3050
1.2400
1.2100
1.3000
1.3950
1.4850
1.5300
1.5250
1.5050
1.4500
1.4250
1.4200
1.4350
1.4350
1.4150
1.4000
1.4050
1.4200
1.4400
1.4350
1.4300
1.4050
1.4250
1.4050
1.4000
1.3950
1.4100
1.3800
1.3400
1.2900
1.3400
1.4200
1.5050
1.5550
1.5550
1.5350
1.4700
1.4100
1.3550
1.3300
1.3150
1.3500
1.3650
1.3750
1.3650
1.3500
1.3250
1.3350
1.3600
1.4200
1.4450
1.4550
1.4450
1.4200
1.4000
1.3550
1.3450
1.3750
1.4200
1.4650
1.4750
1.4450
1.4300
1.4150
1.4000
1.3950
1.3800
1.3650
1.3450
1.3250
1.3450
1.3800
1.4100
1.4250
1.4550
1.4550
1.4650
1.4600
1.4550
1.4300
1.4350
1.4350
1.4000
1.3850
1.3850
1.4200
1.4700
1.5350
1.5900
1.5950
1.5750
1.5200
1.4600
1.4150
1.4050
1.4250
1.4350
1.4600
1.4550
1.4450
1.4200
1.4150
1.4250
1.4350
1.4700
1.4700
1.5150
1.5350
1.5200
1.5000
1.5050
1.5200
1.5700
1.5750
1.5800
1.6050
1.6250
1.6250
1.6250
1.6100
1.6100
1.6400
1.6550
1.6550
1.6300
1.6100
1.5650
1.5300
1.4950
1.5150
1.5500
1.6200
1.6700
1.7100
1.7450
1.7300
1.6750
1.5950
1.4600
1.4100
1.4100
1.4400
1.4750
1.5150
1.5100
1.5000
1.4750
1.4800
1.4550
1.4050
1.3400
1.2850
1.3000
1.3200
1.3400
1.3650
1.3900
1.4050
1.4150
1.4200
1.4300
1.4500
1.5000
1.5250
1.5100
1.5000
1.4750
1.4700
1.4650
1.4700
1.4300
1.4350
1.4450
1.4350
1.4350
1.3950
1.3550
1.3400
1.3200
1.3200
1.3550
1.4300
1.5300
1.6450
1.7750
1.9100
2.0500
2.1500
2.1850
2.1800
2.1550
2.1800
2.2300
2.3800
2.5450
2.6600
2.6650
2.5050
2.1950
1.7650
1.3350
0.9550
0.7000
0.5250
0.4300
0.3850
0.3550
0.3500
0.3600
0.3500
0.3200
0.2800
0.2550
0.2350
0.2250
0.2200
0.2400
0.2750
0.3800
0.4950
0.6100
0.7500
0.9050
1.0150
1.1350
1.1950
1.2350
1.2300
1.2450
1.2550
1.2800
1.3150
1.3300
1.3450
1.3000
1.2450
1.2100
1.2500
1.3000
1.3400
1.3400
1.3450
1.3200
1.2950
1.2750
1.2600
1.2450
1.2550
1.2500
1.2550
1.2450
1.2300
1.2300
1.2300
1.2200
1.2050
1.1850
1.1800
1.1600
1.1600
1.1450
1.1500
1.1400
1.1250
1.1200
1.1050
1.0850
1.0750
1.0700
1.0500
1.0500
1.0550
1.0750
1.0750
1.0550
1.0250
1.0050
0.9800
1.0050
1.0400
1.0600
1.0650
1.0700
1.0600
1.0550
1.0600
1.0550
1.0700
1.0900
1.1200
1.1400
1.1550
1.1750
1.1650
1.1700
1.1800
1.2000
1.2250
1.2600
1.2800
1.2950
1.3250
1.3550
1.3700
1.3700
1.3500
1.3250
1.3250
1.3600
1.3800
1.4050
1.4200
1.4250
1.4250
1.4300
1.4250
1.4250
1.4000
1.4100
1.4200
1.4150
1.4250
1.4200
1.3950
1.4000
1.4100
1.4000
1.3950
1.4050
1.3900
1.4050
1.3950
1.4000
1.4050
1.4000
1.3800
1.3700
1.3550
1.3650
1.3550
1.3500
1.3450
1.3550
1.3650
1.3700
1.3750
1.3800
1.3850
1.3950
1.3950
1.3700
1.3550
1.3800
1.3900
1.4100
1.4000
1.3650
1.3500
1.3400
1.3200
1.3300
1.3450
1.3250
1.3250
1.3250
1.3200
1.3350
1.3150
1.3250
1.3300
1.3350
1.3550
1.3450
1.3600
1.3500
1.3600
1.3500
1.3750
1.3750
1.3800
1.3850
1.3700
1.3400
1.3350
1.3250
1.3050
1.2900
1.2800
1.2750
1.2900
1.3150
1.3250
1.3300
1.3200
1.3300
1.3200
1.3150
1.3350
1.3450
1.3500
1.3750
1.3850
1.4100
1.4200
1.4200
1.4100
1.4200
1.4050
1.3850
1.3900
1.4050
1.4250
1.4100
1.4150
1.4200
1.4100
1.4200
1.4350
1.4600
1.5100
1.5450
1.5700
1.5750
1.5850
1.5600
1.5350
1.5150
1.4850
1.4750
1.4650
1.4700
1.4950
1.5300
1.5650
1.5650
1.5800
1.5650
1.5600
1.5300
1.5150
1.5000
1.4750
1.4550
1.4350
1.4200
1.4100
1.4000
1.4050
1.3950
1.4050
1.4000
1.3950
1.3850
1.3750
1.3600
1.3700
1.3750
1.3650
1.3450
1.3250
1.3150
1.3050
1.3050
1.2950
1.2950
1.3100
1.3100
1.3100
1.3200
1.3250
1.3100
1.3050
1.2650
1.2450
1.2050
1.1950
1.2050
1.2400
1.2750
1.2800
1.2950
1.2900
1.3150
1.3100
1.3700
1.4600
1.5650
1.7100
1.8550
2.0100
2.1300
2.1850
2.1800
2.1650
2.1700
2.2100
2.3050
2.4400
2.5750
2.6500
2.6450
2.5100
2.2500
1.8750
1.4650
1.0900
0.7950
0.6050
0.5050
0.4650
0.4300
0.4000
0.3700
0.3400
0.3250
0.3200
0.3100
0.2850
0.2850
0.2750
0.2950
0.3250
0.3450
0.3950
0.4750
0.5850
0.7200
0.8650
1.0150
1.1250
1.2200
1.2850
1.3050
1.2800
1.2900
1.2750
1.2800
1.3150
1.3450
1.3650
1.3800
1.3900
1.3900
1.3750
1.3600
1.3400
1.3400
1.3300
1.3300
1.3400
1.3450
1.3550
1.3400
1.3300
1.3050
1.2950
1.2700
1.2650
1.2750
1.2700
1.2550
1.2550
1.2450
1.2400
1.2600
1.2400
1.2150
1.2000
1.1650
1.1550
1.1400
1.1300
1.1300
1.1350
1.1250
1.1350
1.1200
1.1100
1.1200
1.1000
1.1000
1.0800
1.0650
1.0600
1.0450
1.0500
1.0600
1.0700
1.0850
1.1000
1.0950
1.1000
1.1050
1.1000
1.1200
1.0950
1.1350
1.1550
1.1850
1.2100
1.2150
1.2350
1.2400
1.2400
1.2500
1.2750
1.2900
1.3000
1.3150
1.3400
1.3550
1.3800
1.3800
1.3950
1.4200
1.4250
1.4250
1.4300
1.4350
1.4400
1.4450
1.4700
1.4700
1.4950
1.5000
1.4950
1.5000
1.5050
1.4900
1.4850
1.4750
1.4800
1.4800
1.4800
1.4900
1.4900
1.5150
1.5050
1.5150
1.4900
1.4850
1.4900
1.4850
1.4800
1.4850
1.4700
1.4900
1.5000
1.5000
1.4850
1.4950
1.4850
1.4700
1.4650
1.4800
1.4700
1.4650
1.4750
1.4800
1.4800
1.5000
1.5000
1.4800
1.4850
1.4500
1.4600
1.4550
1.4650
1.4500
1.4900
1.4850
1.5100
1.5050
1.4900
1.5000
1.4950
1.4850
1.4800
1.4750
1.4750
1.4800
1.4900
1.5050
1.5150
1.5150
1.5000
1.4850
1.4850
1.4900
1.4900
1.4800
1.4800
1.4950
1.5000
1.4950
1.5200
1.5200
1.5150
1.5200
1.5100
1.5100
1.5000
1.5050
1.4800
1.4950
1.5150
1.5350
1.5350
1.5450
1.5300
1.5300
1.5550
1.5450
1.5450
1.5500
1.5500
1.5750
1.5750
1.6050
1.6200
1.6400
1.6500
1.6400
1.6400
1.6500
1.6650
1.6900
1.7000
1.7150
1.7100
1.7100
1.7200
1.7250
1.6800
1.6700
1.6450
1.6350
1.6450
1.6600
1.7000
1.7250
1.7550
1.7600
1.7650
1.7450
1.6900
1.6600
1.6350
1.6100
1.5900
1.5850
1.5650
1.5500
1.5550
1.5400
1.5450
1.5550
1.5450
1.5150
1.5150
1.5100
1.5100
1.5050
1.5000
1.4950
1.5200
1.5300
1.5250
1.5300
1.5200
1.5250
1.5250
1.5250
1.5200
1.5250
1.5250
1.5300
1.5450
1.5300
1.5450
1.5450
1.5450
1.5350
1.5100
1.4950
1.4750
1.4650
1.4750
1.5300
1.6250
1.7600
1.9150
2.0500
2.1650
2.1850
2.1850
2.1550
2.1100
2.1400
2.1900
2.3250
2.5000
2.6400
2.7150
2.6450
2.4050
2.0350
1.6400
1.2800
1.0250
0.8600
0.7550
0.6850
0.6500
0.6000
0.5650
0.5400
0.5200
0.5150
0.5050
0.4950
0.5000
0.5000
0.4850
0.5200
0.5650
0.6200
0.7150
0.8700
1.0150
1.1700
1.3050
1.4000
1.4550
1.4900
1.4850
1.4850
1.5100
1.5200
1.5300
1.5550
1.5400
1.5500
1.5350
1.5200
1.5100
1.5100
1.4850
1.4900
1.4750
1.5000
1.4950
1.5050
1.5050
1.4850
1.4650
1.4550
1.4250
1.4050
1.3950
1.3950
1.3800
1.3950
1.3950
1.3950
1.3950
1.3600
1.3500
1.3350
1.3250
1.3000
1.2850
1.2750
1.2550
1.2450
1.2250
1.2100
1.1900
1.1700
1.1450
1.1250
1.0950
1.0900
1.0600
1.0550
1.0600
1.0900
1.0950
1.1350
1.1400
1.1650
1.1850
1.2100
1.2450
1.2700
1.2950
1.3150
1.3500
1.3650
1.3850
1.4250
1.4200
1.4450
1.4600
1.4600
1.4650
1.4850
1.4650
1.4700
1.4900
1.5100
1.5300
1.5300
1.5450
1.5350
1.5450
1.5300
1.5350
1.5300
1.5300
1.5450
1.5500
1.5850
1.5750
1.5900
1.5900
1.5950
1.6050
1.5900
1.5800
1.5600
1.5650
1.5650
1.5650
1.5750
1.5800
1.6000
1.6050
1.5850
1.5750
1.5700
1.5500
1.5450
1.5250
1.5250
1.5250
1.5350
1.5450
1.5450
1.5450
1.5450
1.5350
1.5100
1.5150
1.5150
1.4850
1.5000
1.5050
1.5100
1.5150
1.5050
1.5150
1.4950
1.5100
1.5150
1.5150
1.5150
1.5050
1.5150
1.5300
1.5250
1.5300
1.5350
1.5350
1.5400
1.5250
1.5050
1.5050
1.5000
1.4950
1.5000
1.5150
1.5250
1.5500
1.5550
1.5400
1.5350
1.5300
1.5150
1.5100
1.5150
1.5050
1.5250
1.5200
1.5350
1.5150
1.5550
1.5350
1.5450
1.5350
1.5350
1.5300
1.5300
1.5350
1.5550
1.5700
1.5850
1.5950
1.6100
1.6050
1.6300
1.6200
1.6200
1.6300
1.6300
1.6450
1.6650
1.7000
1.7200
1.7400
1.7450
1.7250
1.7100
1.6800
1.6550
1.6400
1.6200
1.6200
1.6500
1.6900
1.7200
1.7400
1.7500
1.7300
1.6950
1.6600
1.6100
1.5750
1.5450
1.5300
1.5400
1.5350
1.5450
1.5300
1.5400
1.5050
1.5050
1.4700
1.4700
1.4500
1.4650
1.4600
1.4600
1.4550
1.4750
1.5000
1.5000
1.5050
1.5000
1.4850
1.4700
1.4550
1.4600
1.4450
1.4350
1.4400
1.4450
1.4550
1.4650
1.4850
1.4800
1.4700
1.4800
1.4850
1.4600
1.4350
1.4300
1.4300
1.4500
1.4700
1.5250
1.6050
1.7200
1.8500
1.9750
2.1250
2.2250
2.2600
2.2350
2.2100
2.2200
2.2800
2.4050
2.5500
2.7050
2.7750
2.7250
2.5150
2.1500
1.7050
1.2600
0.9150
0.6850
0.5650
0.4800
0.4550
0.4050
0.3700
0.3450
0.3200
0.3150
0.3150
0.3100
0.3300
0.3450
0.3600
0.3900
0.4300
0.4900
0.5900
0.7050
0.8650
1.0100
1.1300
1.2400
1.3250
1.3750
1.3900
1.4000
1.3950
1.4050
1.4150
1.4250
1.4200
1.4200
1.4250
1.4400
1.4350
1.4350
1.4300
1.4350
1.4150
1.4250
1.4300
1.4100
1.3850
1.3900
1.3850
1.3850
1.3850
1.3650
1.3700
1.3650
1.3550
1.3700
1.3400
1.3300
1.3150
1.2950
1.2900
1.2700
1.2750
1.2650
1.2750
1.2750
1.2600
1.2300
1.2300
1.2050
1.1800
1.1650
1.1750
1.1700
1.1800
1.1900
1.1850
1.2050
1.1900
1.1850
1.1900
1.1900
1.1800
1.1700
1.1500
1.1750
1.1950
1.2100
1.2350
1.2350
1.2650
1.2700
1.2900
1.2900
1.3050
1.3050
1.3250
1.3450
1.3650
1.3900
1.4200
1.4450
1.4400
1.4400
1.4550
1.4700
1.4750
1.5000
1.5000
1.5050
1.5150
1.5150
1.5250
1.5350
1.5450
1.5450
1.5450
1.5500
1.5400
1.5450
1.5250
1.5250
1.5450
1.5400
1.5450
1.5500
1.5500
1.5650
1.5600
1.5300
1.5600
1.5500
1.5400
1.5300
1.5200
1.5200
1.5400
1.5350
1.5600
1.5550
1.5600
1.5500
1.5350
1.5150
1.5300
1.5200
1.5150
1.5150
1.5200
1.5350
1.5250
1.5200
1.5350
1.5100
1.4950
1.5100
1.5150
1.5150
1.5300
1.5400
1.5350
1.5500
1.5450
1.5300
1.5300
1.5250
1.5250
1.5300
1.5350
1.5250
1.5550
1.5500
1.5600
1.5650
1.5500
1.5600
1.5500
1.5450
1.5400
1.5400
1.5450
1.5500
1.5700
1.5700
1.5750
1.5900
1.5850
1.5800
1.5750
1.5750
1.5700
1.5600
1.5500
1.5750
1.5850
1.5850
1.5950
1.6100
1.6150
1.6050
1.5950
1.6000
1.5950
1.6200
1.6300
1.6350
1.6550
1.6750
1.6950
1.7100
1.7150
1.7150
1.7100
1.7000
1.7100
1.7200
1.7200
1.7400
1.7650
1.7700
1.7600
1.7600
1.7250
1.7050
1.6850
1.6750
1.6450
1.6550
1.6600
1.6750
1.6850
1.7000
1.7200
1.7000
1.6800
1.6500
1.6100
1.5700
1.5350
1.5250
1.5050
1.4950
1.4850
1.4850
1.4900
1.4900
1.4900
1.4650
1.4700
1.4600
1.4450
1.4250
1.4150
1.4200
1.4350
1.4300
1.4500
1.4650
1.4500
1.4500
1.4450
1.4450
1.4450
1.4350
1.4300
1.4500
1.4550
1.4550
1.4800
1.4900
1.4900
1.5050
1.4850
1.4650
1.4250
1.4300
1.4050
1.4200
1.4850
1.5950
1.7200
1.8900
2.0400
2.1750
2.2350
2.2450
2.2300
2.2350
2.2700
2.4000
2.5550
2.7050
2.7850
2.7100
2.4650
2.0850
1.6450
1.2350
0.9300
0.7200
0.6050
0.5550
0.5400
0.5200
0.5000
0.4900
0.4700
0.4600
0.4450
0.4250
0.4250
0.4350
0.4500
0.4750
0.5200
0.6050
0.7100
0.8600
1.0000
1.1300
1.2350
1.3150
1.3550
1.3500
1.3650
1.3600
1.3600
1.3900
1.4100
1.4100
1.4350
1.4400
1.4400
1.4400
1.4250
1.4250
1.3850
1.4050
1.4150
1.4150
1.4200
1.4300
1.4250
1.4200
1.3950
1.3950
1.3750
1.3700
1.3650
1.3600
1.3500
1.3450
1.3350
1.3500
1.3500
1.3300
1.3150
1.3000
1.2900
1.2800
1.2750
1.2550
1.2450
1.2400
1.2650
1.2550
1.2500
1.2500
1.2300
1.2250
1.2100
1.1900
1.1850
1.1700
1.1800
1.1850
1.1850
1.1950
1.2050
1.2100
1.2100
1.2000
1.1950
1.1950
1.2150
1.2250
1.2350
1.2650
1.2750
1.2900
1.3200
1.3500
1.3600
1.3800
1.4050
1.4150
1.4150
1.4300
1.4500
1.4600
1.4800
1.5000
1.5100
1.5350
1.5200
1.5200
1.5350
1.5450
1.5450
1.5650
1.5600
1.5750
1.6000
1.6050
1.6050
1.6050
1.6000
1.6100
1.6000
1.6050
1.6100
1.6150
1.6100
1.6250
1.6300
1.6350
1.6350
1.6200
1.6100
1.6100
1.6100
1.6000
1.6050
1.6100
1.6150
1.6300
1.6300
1.6300
1.6300
1.6100
1.6050
1.5950
1.5700
1.5700
1.5750
1.5850
1.5900
1.5850
1.5850
1.5800
1.5900
1.5600
1.5650
1.5300
1.5250
1.5100
1.4950
1.5000
1.4950
1.5100
1.5150
1.5250
1.5350
1.5350
1.5200
1.5050
1.5000
1.4950
1.4950
1.5050
1.5000
1.5000
1.4950
1.5050
1.5100
1.5200
1.5150
1.5050
1.4950
1.4900
1.4800
1.4850
1.4900
1.4900
1.4950
1.5000
1.5100
1.5000
1.4950
1.4850
1.4900
1.4750
1.4750
1.4700
1.4800
1.4800
1.4900
1.5150
1.5400
1.5550
1.5550
1.5600
1.5600
1.5500
1.5650
1.5900
1.5750
1.6100
1.6250
1.6500
1.6550
1.6600
1.6900
1.7000
1.6950
1.6800
1.6600
1.6400
1.6350
1.6500
1.6250
1.6250
1.6500
1.6550
1.6850
1.6800
1.6850
1.7000
1.7000
1.6900
1.6550
1.6500
1.6200
1.5950
1.5850
1.5650
1.5300
1.5050
1.5100
1.4800
1.4550
1.4650
1.4650
1.4850
1.4950
1.4900
1.5050
1.4850
1.4650
1.4650
1.4800
1.4650
1.4600
1.4500
1.4550
1.4700
1.4500
1.4850
1.4850
1.4750
1.4750
1.4700
1.4600
1.4300
1.4400
1.4400
1.4550
1.4600
1.4750
1.4800
1.4950
1.4850
1.4750
1.4400
1.4450
1.4500
1.4550
1.5150
1.6150
1.7450
1.8900
2.0650
2.1750
2.2200
2.2450
2.2050
2.1800
2.2100
2.3000
2.4550
2.6150
2.7400
2.7700
2.6450
2.3350
1.9400
1.5000
1.1200
0.8550
0.6750
0.5750
0.5250
0.4600
0.4100
0.3850
0.3700
0.3500
0.3600
0.3550
0.3550
0.3600
0.3650
0.3850
0.4400
0.5300
0.6600
0.8150
0.9750
1.1150
1.2150
1.3000
1.3450
1.3600
1.3600
1.3500
1.3550
1.3650
1.3950
1.3950
1.4200
1.4250
1.4150
1.4000
1.3750
1.3700
1.3900
1.3800
1.3750
1.3700
1.3950
1.4000
1.4200
1.3950
1.3900
1.3500
1.3300
1.3350
1.3200
1.3050
1.3000
1.3100
1.3100
1.3050
1.2950
1.2650
1.2850
1.2600
1.2500
1.2450
1.2150
1.2050
1.1900
1.1950
1.1850
1.1850
1.1950
1.1850
1.1800
1.1800
1.1600
1.1650
1.1400
1.1400
1.1350
1.1500
1.1550
1.1700
1.1800
1.2100
1.2200
1.2150
1.2150
1.2400
1.2450
1.2400
1.2500
1.2750
1.2800
1.3200
1.3400
1.3650
1.3850
1.4100
1.4000
1.4100
1.4150
1.4300
1.4350
1.4500
1.4750
1.4750
1.4850
1.4800
1.4700
1.4750
1.4850
1.4850
1.4650
1.4800
1.4950
1.4950
1.5100
1.5100
1.5250
1.5200
1.5250
1.5250
1.5250
1.5200
1.5000
1.4850
1.4850
1.4950
1.5050
1.5150
1.5100
1.5050
1.5200
1.5100
1.5100
1.4850
1.4900
1.4750
1.4650
1.4700
1.4850
1.4850
1.5050
1.4950
1.4950
1.4900
1.4750
1.4700
1.4600
1.4500
1.4550
1.4450
1.4600
1.4800
1.4750
1.4850
1.4800
1.4800
1.4700
1.4750
1.4650
1.4950
1.4700
1.4700
1.4850
1.4800
1.4700
1.4950
1.4750
1.4750
1.4950
1.4850
1.4850
1.4850
1.4850
1.4950
1.5150
1.5100
1.5300
1.5250
1.5150
1.5050
1.4900
1.4800
1.4850
1.4850
1.4950
1.4950
1.4900
1.5100
1.5350
1.5200
1.5300
1.5350
1.5300
1.5300
1.5250
1.5300
1.5150
1.5350
1.5500
1.5750
1.5850
1.6000
1.6050
1.6100
1.5950
1.6050
1.6050
1.6100
1.6300
1.6550
1.6850
1.6900
1.6950
1.6650
1.6550
1.6400
1.6150
1.6050
1.5950
1.6150
1.6250
1.6500
1.6750
1.6850
1.6900
1.6850
1.6550
1.6200
1.5850
1.5650
1.5400
1.5250
1.5300
1.5300
1.5050
1.5000
1.5000
1.5050
1.4900
1.4800
1.4750
1.4650
1.4550
1.4550
1.4500
1.4600
1.4700
1.4850
1.4800
1.4800
1.4800
1.4650
1.4450
1.4500
1.4450
1.4400
1.4450
1.4600
1.4650
1.4600
1.4700
1.4800
1.4850
1.4650
1.4500
1.4450
1.4300
1.4200
1.4250
1.4150
1.4250
1.4500
1.5000
1.6050
1.7250
1.8700
1.9950
2.1100
2.1550
2.1500
2.1250
2.1350
2.1750
2.3150
2.4650
2.6200
2.6900
2.5900
2.3350
1.9550
1.5400
1.2100
0.9600
0.8300
0.7650
0.7300
0.6800
0.6450
0.5850
0.5450
0.5250
0.5050
0.4900
0.4850
0.4750
0.4800
0.5000
0.5400
0.6150
0.7150
0.8450
0.9650
1.1000
1.2250
1.2950
1.3350
1.3650
1.3600
1.3550
1.3650
1.3950
1.4200
1.4400
1.4350
1.4250
1.4200
1.4300
1.4400
1.4500
1.4450
1.4250
1.4250
1.4200
1.4300
1.4150
1.4100
1.4200
1.4000
1.4100
1.4000
1.3950
1.3950
1.3900
1.3850
1.4000
1.3850
1.3550
1.3300
1.3050
1.2850
1.3000
1.3000
1.3000
1.3000
1.3000
1.2900
1.2750
1.2700
1.2600
1.2250
1.2250
1.2050
1.2100
1.1900
1.1950
1.1850
1.1850
1.1850
1.2000
1.2100
1.2100
1.2050
1.2100
1.2050
1.2000
1.1950
1.2050
1.2200
1.2500
1.2650
1.2850
1.3100
1.3300
1.3400
1.3400
1.3350
1.3650
1.3750
1.3900
1.4100
1.4400
1.4500
1.4800
1.4900
1.5000
1.4950
1.5000
1.5150
1.5000
1.5000
1.4950
1.5000
1.5300
1.5450
1.5400
1.5650
1.5550
1.5450
1.5350
1.5200
1.5250
1.5300
1.5450
1.5400
1.5550
1.5600
1.5700
1.5650
1.5700
1.5600
1.5500
1.5250
1.5150
1.5250
1.5200
1.5300
1.5400
1.5350
1.5350
1.5400
1.5350
1.5300
1.5100
1.5050
1.4850
1.4750
1.4850
1.4750
1.4800
1.4850
1.4850
1.5050
1.5300
1.5550
1.5500
1.5250
1.5050
1.4550
1.4250
1.4550
1.4900
1.5050
1.5350
1.5150
1.4900
1.4500
1.4350
1.4300
1.4350
1.4250
1.4400
1.4350
1.4550
1.4600
1.4850
1.4850
1.4750
1.4800
1.4650
1.4450
1.4700
1.4600
1.4600
1.4750
1.4850
1.5050
1.5150
1.5200
1.5150
1.5050
1.5000
1.5000
1.5200
1.5050
1.5400
1.5350
1.5650
1.6050
1.6000
1.6200
1.6250
1.6350
1.6250
1.6250
1.6100
1.5950
1.5900
1.6050
1.6100
1.6200
1.6350
1.6050
1.5950
1.6050
1.6100
1.6350
1.6550
1.6400
1.6450
1.6200
1.6200
1.5800
1.5750
1.5400
1.4750
1.4500
1.4450
1.4400
1.4250
1.4300
1.4350
1.4350
1.4300
1.4200
1.3900
1.4050
1.4100
1.4050
1.3900
1.3750
1.3800
1.3850
1.4000
1.3900
1.4150
1.3950
1.4100
1.4000
1.4050
1.3850
1.3800
1.3700
1.3600
1.3350
1.3300
1.3350
1.3500
1.3550
1.3650
1.3700
1.3750
1.3550
1.3450
1.3300
1.3050
1.2750
1.2550
1.2500
1.2750
1.3050
1.3900
1.4850
1.6100
1.7100
1.7600
1.7800
1.7850
1.7950
1.8650
2.0000
2.1900
2.3950
2.5600
2.6000
2.5450
2.3550
2.0600
1.7200
1.3700
1.0900
0.8950
0.7750
0.7050
0.6750
0.6350
0.5850
0.5100
0.4650
0.4400
0.4200
0.4050
0.3950
0.4300
0.4350
0.4750
0.5250
0.6050
0.7050
0.8350
0.9650
1.0700
1.1600
1.2250
1.2450
1.2600
1.2450
1.2500
1.2600
1.2700
1.2800
1.2900
1.2900
1.2900
1.3000
1.2800
1.2850
1.2900
1.3050
1.3100
1.3000
1.2950
1.3100
1.2950
1.2900
1.2750
1.2500
1.2400
1.2200
1.2300
1.2200
1.2250
1.2250
1.2300
1.2150
1.1900
1.1850
1.1850
1.1950
1.1850
1.1500
1.1300
1.1050
1.0950
1.1150
1.1050
1.1200
1.1250
1.1250
1.1250
1.1150
1.0900
1.0700
1.0650
1.0750
1.0800
1.0750
1.0750
1.0900
1.1050
1.1050
1.1100
1.0950
1.0950
1.0750
1.0800
1.1000
1.1100
1.1350
1.1600
1.1850
1.1850
1.1950
1.2100
1.2100
1.2300
1.2350
1.2350
1.2650
1.3150
1.3200
1.3500
1.3750
1.3900
1.4050
1.3850
1.3650
1.3500
1.3300
1.3450
1.3550
1.3600
1.3700
1.3850
1.4100
1.4150
1.4150
1.4150
1.3850
1.3750
1.3800
1.3600
1.3800
1.3850
1.3850
1.3950
1.4100
1.4250
1.4350
1.4150
1.3750
1.3450
1.3250
1.3050
1.3050
1.3350
1.3750
1.4000
1.4000
1.3750
1.3400
1.3200
1.3150
1.3050
1.3350
1.3550
1.3700
1.3700
1.3650
1.3600
1.3300
1.3250
1.3050
1.2900
1.3050
1.3200
1.3300
1.3450
1.3450
1.3450
1.3450
1.3300
1.3300
1.3300
1.3100
1.2950
1.2900
1.3000
1.3100
1.3050
1.3250
1.3300
1.3150
1.3150
1.3100
1.3100
1.2700
1.2550
1.2400
1.2200
1.2150
1.2450
1.2950
1.3300
1.3500
1.3350
1.3100
1.2800
1.2550
1.2600
1.2550
1.2750
1.2650
1.2550
1.2450
1.2450
1.2750
1.2850
1.2950
1.3000
1.3000
1.2800
1.2600
1.2600
1.2450
1.2250
1.2400
1.2650
1.2700
1.2750
1.2700
1.2700
1.2700
1.2950
1.2950
1.3100
1.3050
1.3050
1.3000
1.3000
1.3100
1.3100
1.3550
1.3450
1.3550
1.3850
1.4000
1.4150
1.4150
1.4250
1.4250
1.4250
1.4050
1.3950
1.3750
1.3600
1.3600
1.3450
1.3600
1.3800
1.4100
1.4300
1.4350
1.4300
1.4000
1.3500
1.3100
1.2800
1.2600
1.2600
1.2400
1.2150
1.2100
1.2050
1.1850
1.1750
1.1800
1.1700
1.1800
1.1750
1.1700
1.1900
1.1950
1.1850
1.1600
1.1450
1.1250
1.1250
1.1300
1.1800
1.1900
1.2050
1.1650
1.1700
1.1450
1.1500
1.1400
1.1350
1.1450
1.1650
1.1850
1.2150
1.2200
1.1900
1.1600
1.1250
1.0850
1.0450
1.0400
1.0600
1.1300
1.2450
1.4100
1.5550
1.6850
1.7500
1.8100
1.8050
1.7850
1.7900
1.8200
1.9400
2.1000
2.2700
2.4100
2.4200
2.3300
2.0250
1.6050
1.1900
0.8100
0.5250
0.3400
0.2050
0.1550
0.1250
0.1300
0.1300
0.1600
0.1550
0.1650
0.1550
0.1400
0.1100
0.1100
0.1350
0.1800
0.2800
0.4150
0.5550
0.6850
0.7950
0.8600
0.9400
0.9750
0.9850
0.9850
0.9950
0.9900
1.0200
1.0550
1.0800
1.1050
1.1050
1.1000
1.0800
1.0650
1.0700
1.0450
1.0250
0.9900
1.0050
0.9950
1.0350
1.0500
1.0650
1.0650
1.0250
1.0100
1.0100
0.9850
0.9800
0.9850
0.9900
1.0050
0.9900
0.9600
0.9400
0.9300
0.9250
0.9150
0.9050
0.8900
0.8700
0.8450
0.8450
0.8300
0.8450
0.8700
0.8550
0.8700
0.8750
0.8750
0.8350
0.8300
0.8200
0.8250
0.8350
0.8500
0.8750
0.8800
0.8750
0.8650
0.8700
0.8600
0.8650
0.8550
0.8500
0.8650
0.8950
0.9450
0.9950
1.0300
1.0550
1.0550
1.0400
1.0100
0.9750
0.9850
1.0150
1.0550
1.1150
1.1500
1.1650
1.1950
1.2000
1.1950
1.2100
1.2050
1.2100
1.1950
1.1850
1.1650
1.1550
1.1600
1.1650
1.1800
1.1950
1.1850
1.1850
1.1950
1.1900
1.1850
1.1850
1.1700
1.1750
1.1950
1.2050
1.2200
1.2100
1.2250
1.2150
1.1950
1.2100
1.1850
1.1700
1.1600
1.1950
1.2050
1.1850
1.1950
1.2050
1.1950
1.1650
1.1350
1.1100
1.1250
1.1250
1.1300
1.1650
1.1800
1.1950
1.1900
1.1800
1.1500
1.1350
1.1200
1.1300
1.1350
1.1400
1.1650
1.1650
1.1900
1.1700
1.1800
1.1850
1.2050
1.2200
1.2200
1.1900
1.1700
1.1300
1.1150
1.1150
1.1400
1.1450
1.1650
1.1950
1.1750
1.1850
1.2050
1.2000
1.2050
1.1900
1.1800
1.1700
1.1800
1.1750
1.1750
1.1900
1.1850
1.1850
1.1950
1.2000
1.2100
1.1950
1.1850
1.1900
1.1850
1.1750
1.2000
1.1950
1.2200
1.2200
1.2150
1.2100
1.2100
1.2100
1.2000
1.2100
1.2350
1.2400
1.2600
1.2450
1.2350
1.2100
1.1950
1.1900
1.2100
1.2250
1.2550
1.2750
1.2850
1.2950
1.3200
1.3150
1.3150
1.3300
1.3350
1.3550
1.3900
1.3900
1.4100
1.4150
1.4050
1.4050
1.3750
1.3400
1.3450
1.3350
1.3200
1.3550
1.4000
1.4300
1.4300
1.4200
1.4050
1.3800
1.3650
1.3250
1.2750
1.2500
1.2550
1.2350
1.2250
1.2100
1.1750
1.1800
1.1650
1.1700
1.1800
1.1850
1.1950
1.2100
1.1900
1.1900
1.1750
1.1550
1.1550
1.1750
1.1900
1.2200
1.2300
1.2250
1.2250
1.1850
1.1650
1.1100
1.1050
1.1000
1.1250
1.1450
1.1650
1.2000
1.2100
1.2100
1.1950
1.1800
1.1550
1.1350
1.1450
1.1700
1.2450
1.3700
1.5300
1.7000
1.8500
1.9100
1.9150
1.8600
1.8550
1.8950
2.0500
2.2300
2.3950
2.4850
2.4100
2.1500
1.7500
1.3200
0.9250
0.6350
0.4700
0.3950
0.3550
0.3000
0.2500
0.2050
0.1500
0.1150
0.1100
0.1150
0.1150
0.1050
0.0850
0.0800
0.0950
0.1400
0.1950
0.2750
0.3650
0.4800
0.6350
0.7450
0.8550
0.9550
1.0050
1.0150
1.0300
1.0500
1.0850
1.1200
1.1450
1.1650
1.1700
1.1850
1.1600
1.1300
1.1000
1.0900
1.1000
1.0900
1.1350
1.1250
1.1250
1.1350
1.1400
1.1200
1.1200
1.1050
1.1000
1.0950
1.0900
1.0950
1.0850
1.0850
1.0650
1.0700
1.0500
1.0450
1.0250
1.0250
1.0200
1.0050
0.9950
0.9700
0.9500
0.9350
0.9200
0.9250
0.9400
0.9350
0.9350
0.9400
0.9400
0.9350
0.9250
0.9100
0.9000
0.9200
0.9350
0.9400
0.9600
0.9500
0.9250
0.9200
0.9250
0.9300
0.9500
0.9550
0.9800
1.0150
1.0350
1.0650
1.0800
1.0850
1.0900
1.0950
1.0900
1.1100
1.1500
1.1600
1.1650
1.1850
1.2000
1.2200
1.2500
1.2600
1.2700
1.2650
1.2400
1.2400
1.2550
1.2600
1.2650
1.2800
1.3050
1.3350
1.3550
1.3300
1.3050
1.3050
1.2650
1.2600
1.2700
1.2700
1.2900
1.3100
1.3300
1.3400
1.3400
1.3300
1.3050
1.2650
1.2550
1.2550
1.2550
1.2550
1.2650
1.2950
1.2950
1.2950
1.3100
1.2950
1.2750
1.2450
1.2100
1.1850
1.1900
1.2100
1.2300
1.2550
1.2650
1.2700
1.2650
1.2600
1.2600
1.2600
1.2550
1.2600
1.2550
1.2400
1.2350
1.2400
1.2400
1.2600
1.2650
1.2650
1.2850
1.2900
1.2800
1.2750
1.2650
1.2550
1.2500
1.2500
1.2500
1.2750
1.2800
1.2550
1.2600
1.2600
1.2750
1.2700
1.2750
1.2750
1.2650
1.2650
1.2650
1.2900
1.3150
1.3200
1.2950
1.2750
1.2350
1.2350
1.2400
1.2450
1.2400
1.2750
1.2950
1.3100
1.3150
1.3200
1.3150
1.2950
1.2950
1.2900
1.3000
1.2950
1.3000
1.3300
1.3300
1.3550
1.3700
1.3600
1.3700
1.3650
1.3900
1.3950
1.4300
1.4450
1.4850
1.5100
1.5050
1.4750
1.4500
1.4250
1.4050
1.4000
1.3800
1.3800
1.3750
1.3950
1.4250
1.4500
1.4850
1.5100
1.4950
1.4500
1.4100
1.3900
1.3700
1.3400
1.3300
1.3200
1.2950
1.2900
1.2850
1.2950
1.3050
1.3150
1.3050
1.2800
1.2450
1.2100
1.1850
1.1700
1.1950
1.2200
1.2450
1.2600
1.2650
1.2400
1.2400
1.2400
1.2350
1.2300
1.2300
1.2200
1.2050
1.2100
1.2150
1.2250
1.2750
1.2750
1.2900
1.2850
1.2600
1.2450
1.2200
1.1900
1.2000
1.2000
1.2500
1.3250
1.4400
1.6000
1.7600
1.9200
2.0200
2.0550
2.0350
1.9850
1.9850
2.0350
2.1450
2.3050
2.4750
2.5550
2.5500
2.3750
2.0250
1.6050
1.1650
0.7950
0.5350
0.3950
0.3200
0.2800
0.2600
0.2250
0.1900
0.1800
0.1550
0.1650
0.1950
0.2100
0.2250
0.2550
0.2850
0.3150
0.3450
0.4100
0.5150
0.6550
0.8050
0.9200
1.0150
1.0700
1.1200
1.1400
1.1350
1.1400
1.1450
1.1300
1.1300
1.1250
1.1400
1.1500
1.1600
1.1650
1.1600
1.2000
1.2050
1.2000
1.1950
1.1800
1.1700
1.1600
1.1500
1.1450
1.1500
1.1450
1.1450
1.1550
1.1400
1.1600
1.1450
1.1000
1.0950
1.0850
1.0700
1.0650
1.0550
1.0350
1.0100
0.9900
0.9900
1.0050
1.0150
1.0400
1.0250
1.0100
0.9950
0.9850
0.9550
0.9250
0.9200
0.9350
0.9550
0.9600
0.9800
0.9850
1.0100
0.9900
0.9750
0.9650
0.9550
0.9300
0.9500
0.9700
0.9900
1.0200
1.0650
1.0750
1.0750
1.0850
1.0900
1.0850
1.0950
1.1150
1.1400
1.1650
1.1800
1.2200
1.2350
1.2600
1.2800
1.3000
1.3000
1.2900
1.2800
1.2700
1.2650
1.3000
1.3050
1.3150
1.3400
1.3500
1.3300
1.3250
1.3050
1.3000
1.3050
1.3150
1.3350
1.3450
1.3450
1.3450
1.3450
1.3300
1.3200
1.3150
1.3350
1.3400
1.3350
1.3150
1.3150
1.3050
1.3150
1.3000
1.3200
1.3150
1.3200
1.3250
1.3000
1.3050
1.2900
1.2900
1.3050
1.3250
1.3150
1.3250
1.3200
1.3350
1.3250
1.3000
1.3050
1.2900
1.2950
1.2950
1.3150
1.3200
1.3350
1.3450
1.3650
1.3700
1.3750
1.3800
1.3800
1.3650
1.3450
1.3250
1.3150
1.3150
1.3200
1.3400
1.3600
1.3750
1.3900
1.3850
1.3550
1.3300
1.3100
1.3100
1.3150
1.3350
1.3550
1.3750
1.3900
1.4050
1.3800
1.3850
1.3800
1.3750
1.3600
1.3650
1.3700
1.3850
1.3950
1.4200
1.4150
1.4100
1.4100
1.3950
1.4050
1.4100
1.3950
1.4200
1.4250
1.4400
1.4700
1.4750
1.5000
1.5050
1.5300
1.5250
1.5300
1.5100
1.5250
1.5350
1.5450
1.5750
1.5850
1.5600
1.5350
1.5150
1.5100
1.5000
1.4950
1.4750
1.4750
1.4750
1.4850
1.5250
1.5400
1.5750
1.6050
1.6200
1.5850
1.5750
1.5400
1.5000
1.4450
1.4100
1.4300
1.4250
1.4600
1.4700
1.4800
1.4550
1.4350
1.4100
1.3550
1.3350
1.3150
1.3000
1.3200
1.3550
1.3650
1.3700
1.3850
1.3700
1.3700
1.3400
1.3400
1.3350
1.3150
1.3100
1.3050
1.3050
1.3350
1.3450
1.3650
1.3750
1.3750
1.3700
1.3650
1.3400
1.3350
1.3300
1.3150
1.3200
1.3100
1.3150
1.3150
1.3200
1.3400
1.4200
1.5250
1.6450
1.7550
1.8650
1.9300
1.9550
1.9550
1.9500
1.9750
2.1000
2.2400
2.4150
2.5550
2.5900
2.4800
2.1950
1.8200
1.4250
1.1050
0.8650
0.7150
0.6500
0.5950
0.5450
0.4950
0.4550
0.4200
0.4050
0.4100
0.4150
0.4450
0.4400
0.4450
0.4550
0.4700
0.4900
0.5650
0.6650
0.7950
0.9100
0.9900
1.0650
1.1250
1.1650
1.2200
1.2300
1.2550
1.2650
1.2750
1.2950
1.2950
1.3100
1.2950
1.2800
1.2700
1.2700
1.2650
1.2600
1.2650
1.2800
1.2750
1.2850
1.2750
1.2650
1.2600
1.2600
1.2450
1.2600
1.2550
1.2700
1.2450
1.2300
1.2050
1.1900
1.1850
1.1800
1.1650
1.1800
1.1750
1.1600
1.1450
1.1350
1.1500
1.1200
1.1150
1.1150
1.1100
1.1000
1.0800
1.0650
1.0550
1.0550
1.0800
1.0800
1.0600
1.0700
1.0450
1.0100
1.0350
1.0100
1.0250
1.0400
1.0600
1.0750
1.1050
1.1150
1.1400
1.1550
1.1300
1.1300
1.1400
1.1500
1.1700
1.1950
1.2350
1.2550
1.2850
1.2950
1.2900
1.3000
1.3050
1.3300
1.3450
1.3550
1.3700
1.3800
1.3800
1.3850
1.4050
1.4100
1.4250
1.4400
1.4400
1.4250
1.4100
1.4100
1.3850
1.3850
1.4100
1.4250
1.4700
1.4700
1.4600
1.4300
1.4150
1.3800
1.3900
1.3850
1.3900
1.3800
1.4050
1.4100
1.4250
1.4250
1.4350
1.4400
1.4400
1.4350
1.4050
1.4000
1.4000
1.4000
1.3850
1.3950
1.4050
1.4050
1.4050
1.4000
1.4000
1.3950
1.4050
1.3900
1.4200
1.4200
1.4350
1.4250
1.4450
1.4450
1.4450
1.4350
1.4350
1.4100
1.4100
1.4100
1.3900
1.4100
1.4150
1.4200
1.4400
1.4300
1.4150
1.4300
1.4350
1.4100
1.4250
1.4200
1.4450
1.4850
1.5000
1.5000
1.5200
1.5200
1.5300
1.5250
1.5150
1.5250
1.5150
1.5150
1.5400
1.5300
1.5450
1.5550
1.5800
1.5800
1.5850
1.5850
1.5950
1.5950
1.5700
1.5850
1.6000
1.6150
1.6400
1.6600
1.6550
1.6800
1.6800
1.6650
1.6750
1.6700
1.6700
1.6950
1.7150
1.7400
1.7650
1.7900
1.8100
1.8350
1.8250
1.8200
1.7650
1.7400
1.7100
1.6850
1.6750
1.6800
1.7000
1.7200
1.7650
1.8000
1.8300
1.8300
1.8000
1.7550
1.7150
1.6700
1.6600
1.6350
1.6450
1.6500
1.6600
1.6500
1.6500
1.6500
1.6050
1.5950
1.5650
1.5600
1.5600
1.5850
1.5900
1.6050
1.6200
1.6250
1.6300
1.6250
1.6300
1.6300
1.6200
1.6300
1.6200
1.6300
1.6400
1.6550
1.6500
1.6350
1.6300
1.6350
1.6300
1.6250
1.6100
1.6250
1.6200
1.6100
1.6050
1.5900
1.6100
1.6600
1.7450
1.8750
2.0050
2.1250
2.2250
2.2550
2.2700
2.2750
2.3350
2.4450
2.6100
2.7850
2.9100
2.9350
2.8150
2.5450
2.1550
1.7400
1.3700
1.1150
0.9900
0.9100
0.8650
0.8050
0.7300
0.6750
0.6300
0.5950
0.5850
0.5650
0.5700
0.5800
0.5950
0.5950
0.6350
0.6650
0.7350
0.8000
0.8750
1.0100
1.1150
1.2250
1.3250
1.4000
1.4650
1.4900
1.5050
1.5000
1.5000
1.5100
1.5050
1.5200
1.5350
1.5300
1.5400
1.5300
1.5500
1.5550
1.5600
1.5500
1.5500
1.5500
1.5300
1.5250
1.5050
1.4900
1.5050
1.5100
1.5200
1.5300
1.5100
1.5300
1.5000
1.4850
1.4650
1.4600
1.4400
1.4250
1.4250
1.3900
1.3950
1.4050
1.3850
1.4000
1.3850
1.3700
1.3550
1.3450
1.3450
1.3400
1.3350
1.3250
1.3300
1.3250
1.3100
1.3250
1.3300
1.3250
1.3100
1.3050
1.3000
1.3100
1.2950
1.3000
1.3150
1.3450
1.3800
1.3950
1.4200
1.4350
1.4450
1.4500
1.4650
1.4700
1.5000
1.5350
1.5450
1.5600
1.5950
1.6050
1.6150
1.6250
1.6250
1.6300
1.6400
1.6400
1.6450
1.6550
1.6750
1.6850
1.6950
1.7050
1.7000
1.7000
1.7000
1.7000
1.6800
1.6800
1.6900
1.7050
1.7100
1.7150
1.7250
1.7300
1.7300
1.7250
1.7200
1.6950
1.6800
1.6600
1.6800
1.6950
1.7100
1.7200
1.7250
1.7200
1.7100
1.6750
1.6800
1.6650
1.6600
1.6450
1.6250
1.6350
1.6500
1.6500
1.6450
1.6700
1.6650
1.6700
1.6550
1.6550
1.6350
1.6250
1.6400
1.6400
1.6600
1.6700
1.6800
1.6900
1.7000
1.6900
1.6800
1.6600
1.6300
1.6250
1.6350
1.6450
1.6650
1.6650
1.6850
1.6900
1.6950
1.6950
1.6800
1.6700
1.6600
1.6450
1.6650
1.6700
1.6750
1.6700
1.6750
1.6700
1.6650
1.6650
1.6600
1.6400
1.6500
1.6400
1.6450
1.6450
1.6650
1.6800
1.6950
1.7050
1.6900
1.6900
1.6800
1.6800
1.6750
1.6750
1.6800
1.6800
1.7100
1.7200
1.7400
1.7500
1.7500
1.7550
1.7550
1.7500
1.7400
1.7350
1.7350
1.7550
1.7850
1.8400
1.8700
1.9000
1.8850
1.8650
1.8350
1.8250
1.7850
1.7550
1.7350
1.7500
1.7950
1.8100
1.8450
1.8750
1.8650
1.8650
1.8550
1.8600
1.8450
1.8100
1.7800
1.7550
1.7150
1.7100
1.6900
1.6650
1.6650
1.6400
1.6250
1.6250
1.5950
1.5850
1.5700
1.5600
1.5900
1.6000
1.6050
1.6150
1.6050
1.6150
1.6200
1.6200
1.6300
1.6400
1.6200
1.6150
1.6200
1.6250
1.6300
1.6050
1.6000
1.6100
1.5950
1.5800
1.5700
1.5750
1.5900
1.6100
1.6200
1.6100
1.6100
1.6050
1.6400
1.6600
1.7300
1.8350
1.9550
2.1000
2.2350
2.3250
2.3600
2.3300
2.3200
2.3450
2.4250
2.5350
2.6800
2.8000
2.8600
2.7900
2.5750
2.2100
1.7950
1.4000
1.0900
0.9100
0.8200
0.7600
0.7050
0.6700
0.6300
0.6100
0.5700
0.5450
0.5550
0.5450
0.5550
0.5600
0.5750
0.6000
0.6250
0.6850
0.7550
0.8800
1.0350
1.1800
1.3450
1.4600
1.5250
1.5500
1.5400
1.5150
1.5100
1.5050
1.5000
1.5100
1.5150
1.5400
1.5600
1.5650
1.5650
1.5700
1.5650
1.5750
1.5700
1.5600
1.5450
1.5250
1.5250
1.5450
1.5400
1.5300
1.5250
1.5050
1.4850
1.4800
1.4850
1.4750
1.4500
1.4450
1.4350
1.4150
1.4200
1.4250
1.4100
1.4100
1.3950
1.3850
1.3700
1.3400
1.3250
1.3250
1.3200
1.2900
1.3150
1.3100
1.3150
1.3250
1.2950
1.3100
1.3000
1.2900
1.2800
1.2900
1.2850
1.2900
1.2900
1.3050
1.3100
1.3350
1.3350
1.3550
1.3450
1.3450
1.3750
1.4000
1.4150
1.4200
1.4250
1.4650
1.4650
1.5000
1.5150
1.5350
1.5550
1.5600
1.5400
1.5550
1.5450
1.5650
1.5650
1.5750
1.5850
1.5950
1.6000
1.6100
1.6050
1.6200
1.6050
1.6100
1.6100
1.6350
1.6350
1.6350
1.6400
1.6450
1.6400
1.6450
1.6350
1.6200
1.6200
1.5900
1.6100
1.6200
1.6100
1.6300
1.6400
1.6650
1.6550
1.6500
1.6200
1.6000
1.5850
1.5850
1.5900
1.5950
1.6100
1.6250
1.6350
1.6400
1.6300
1.6250
1.5950
1.5800
1.5650
1.5500
1.5650
1.5850
1.5950
1.6050
1.5700
1.5750
1.5750
1.5750
1.5700
1.5750
1.5650
1.5650
1.5750
1.5700
1.5700
1.5850
1.6000
1.6100
1.6050
1.6050
1.6000
1.5800
1.5750
1.5800
1.5900
1.6200
1.6150
1.6350
1.6250
1.6400
1.6400
1.6350
1.6150
1.6250
1.6000
1.5900
1.6200
1.6200
1.6350
1.6350
1.6350
1.6450
1.6450
1.6350
1.6400
1.6500
1.6400
1.6550
1.6900
1.6950
1.7150
1.7400
1.7400
1.7450
1.7300
1.7550
1.7500
1.7650
1.7400
1.7600
1.7500
1.7450
1.7450
1.7400
1.7300
1.7400
1.7550
1.7900
1.8000
1.8000
1.7600
1.7300
1.6950
1.6750
1.6700
1.6600
1.6600
1.6650
1.6500
1.6350
1.6050
1.5650
1.5450
1.5300
1.5100
1.5050
1.5250
1.5400
1.5700
1.5850
1.5750
1.5750
1.5600
1.5300
1.5000
1.4950
1.4650
1.4600
1.4650
1.4900
1.5300
1.5450
1.5750
1.5800
1.5650
1.5500
1.5350
1.5350
1.5300
1.5500
1.5600
1.5550
1.5250
1.4850
1.4650
1.4700
1.5400
1.6600
1.7800
1.9200
2.0500
2.1000
2.1000
2.0800
2.0800
2.1350
2.2900
2.4700
2.6900
2.8250
2.8300
2.6650
2.3500
1.9400
1.5350
1.2000
1.0050
0.8800
0.8000
0.7400
0.6650
0.5950
0.5400
0.4900
0.4700
0.4750
0.5100
0.5400
0.5650
0.5800
0.5950
0.6300
0.6800
0.7550
0.8300
0.9350
1.0300
1.1950
1.3200
1.4100
1.4450
1.4600
1.4700
1.4750
1.4850
1.4950
1.5000
1.5150
1.4900
1.4900
1.4800
1.5000
1.5000
1.5050
1.5100
1.5000
1.4550
1.4500
1.4600
1.4500
1.4800
1.4900
1.4900
1.5000
1.4950
1.4900
1.4800
1.4550
1.4200
1.3950
1.3800
1.3750
1.3650
1.3700
1.3550
1.3400
1.3400
1.3550
1.3600
1.3600
1.3450
1.3100
1.2950
1.2750
1.2600
1.2600
1.2650
1.2900
1.3050
1.3250
1.3050
1.2950
1.2650
1.2450
1.2100
1.2150
1.2200
1.2500
1.2600
1.2650
1.2650
1.2700
1.2750
1.3100
1.3200
1.3500
1.3550
1.3700
1.3450
1.3400
1.3350
1.3800
1.4200
1.4650
1.4950
1.5050
1.5000
1.5000
1.5000
1.4900
1.4750
1.4800
1.4850
1.5150
1.5250
1.5600
1.5750
1.6100
1.6050
1.5900
1.5950
1.5800
1.5800
1.5600
1.5750
1.5850
1.6150
1.6350
1.6250
1.6250
1.5950
1.5750
1.5650
1.5450
1.5500
1.5500
1.5600
1.5750
1.5800
1.5600
1.5850
1.6000
1.6100
1.5900
1.5550
1.5500
1.5300
1.5300
1.5100
1.5200
1.5250
1.5300
1.5300
1.5150
1.5100
1.5050
1.5000
1.4900
1.4900
1.4850
1.5050
1.5200
1.5450
1.5450
1.5600
1.5500
1.5400
1.5300
1.5150
1.4900
1.5050
1.5050
1.5000
1.5450
1.5550
1.5650
1.5600
1.5350
1.5200
1.5050
1.5000
1.5050
1.5250
1.5300
1.5400
1.5500
1.5650
1.5900
1.5950
1.6000
1.5800
1.5500
1.5400
1.5100
1.5100
1.5250
1.5300
1.5600
1.5650
1.5700
1.5800
1.5700
1.5750
1.5800
1.5950
1.5950
1.6150
1.6200
1.6450
1.6700
1.7050
1.7000
1.6950
1.7050
1.7000
1.7100
1.7150
1.7250
1.7350
1.7500
1.7400
1.7300
1.7150
1.6750
1.6350
1.6350
1.6300
1.6500
1.6700
1.6800
1.6900
1.6850
1.6950
1.6800
1.6650
1.6550
1.6200
1.5950
1.5800
1.5750
1.5500
1.5300
1.4900
1.4850
1.4700
1.4800
1.4650
1.4700
1.4650
1.4750
1.4900
1.4750
1.4800
1.4750
1.4700
1.4700
1.4650
1.4550
1.4400
1.4400
1.4350
1.4450
1.4550
1.4650
1.4650
1.4450
1.4400
1.4350
1.4500
1.4700
1.5050
1.5000
1.4700
1.4450
1.3950
1.3650
1.3550
1.3800
1.4150
1.5050
1.6100
1.7450
1.8700
1.9600
2.0050
2.0000
1.9650
1.9550
2.0350
2.1750
2.3700
2.5850
2.7450
2.7900
2.6750
2.3750
1.9350
1.4750
1.0800
0.8200
0.6800
0.5750
0.5150
0.4800
0.4400
0.3950
0.3750
0.3800
0.3750
0.3900
0.4050
0.4150
0.4000
0.4000
0.4150
0.4650
0.5450
0.6800
0.8250
0.9900
1.1000
1.2100
1.2800
1.3150
1.3350
1.3450
1.3450
1.3450
1.3650
1.3750
1.3900
1.4050
1.4300
1.4200
1.3950
1.3950
1.3900
1.3800
1.3600
1.3550
1.3900
1.4000
1.4050
1.4050
1.4100
1.4050
1.3750
1.3550
1.3400
1.3150
1.3050
1.3200
1.3050
1.3000
1.3200
1.3100
1.3050
1.2900
1.2750
1.2600
1.2400
1.2250
1.2100
1.2100
1.1850
1.1900
1.1850
1.1800
1.2000
1.2000
1.1800
1.1650
1.1500
1.1350
1.1350
1.1200
1.1200
1.1450
1.1550
1.1750
1.1750
1.1750
1.1750
1.1800
1.1800
1.1950
1.1900
1.2000
1.2100
1.2450
1.2600
1.2650
1.3000
1.3050
1.3050
1.3200
1.3300
1.3600
1.3850
1.3850
1.4050
1.4150
1.4250
1.4350
1.4350
1.4550
1.4650
1.4500
1.4550
1.4600
1.4450
1.4550
1.4700
1.4750
1.4800
1.5100
1.5150
1.4950
1.4850
1.4650
1.4500
1.4450
1.4450
1.4550
1.4700
1.4750
1.4850
1.4550
1.4550
1.4550
1.4600
1.4650
1.4500
1.4400
1.4150
1.4250
1.4350
1.4400
1.4500
1.4450
1.4500
1.4600
1.4600
1.4300
1.4250
1.4300
1.4200
1.4250
1.4350
1.4300
1.4350
1.4600
1.4500
1.4550
1.4350
1.4400
1.4100
1.4050
1.4000
1.3950
1.4100
1.4400
1.4400
1.4350
1.4550
1.4350
1.4550
1.4300
1.4500
1.4500
1.4450
1.4350
1.4450
1.4600
1.4650
1.4900
1.5250
1.5400
1.5450
1.5350
1.5200
1.4900
1.4650
1.4700
1.4650
1.4850
1.4950
1.4950
1.4900
1.4800
1.4550
1.4200
1.4000
1.3950
1.3900
1.4050
1.4100
1.4200
1.4250
1.4400
1.4400
1.4300
1.4250
1.4200
1.4300
1.4200
1.4300
1.4300
1.4550
1.4750
1.4850
1.5150
1.5500
1.5850
1.6100
1.6100
1.6200
1.6150
1.5950
1.5750
1.5700
1.5500
1.5400
1.5450
1.5550
1.5650
1.5700
1.5900
1.5850
1.5900
1.5700
1.5650
1.5350
1.5300
1.5000
1.4600
1.4350
1.4100
1.4150
1.4000
1.3900
1.3700
1.3600
1.3550
1.3500
1.3550
1.3700
1.3650
1.3700
1.3600
1.3700
1.3500
1.3400
1.3300
1.3350
1.3350
1.3500
1.3500
1.3550
1.3550
1.3450
1.3150
1.3300
1.3200
1.3300
1.3300
1.3300
1.3350
1.3500
1.3550
1.3550
1.3500
1.3450
1.3200
1.3000
1.2950
1.2950
1.3550
1.4450
1.5750
1.7200
1.8750
2.0000
2.0900
2.0750
2.0500
2.0450
2.0750
2.1850
2.3400
2.4750
2.5250
2.4250
2.1200
1.6850
1.2150
0.8100
0.5100
0.3500
0.2700
0.2350
0.2250
0.1900
0.1800
0.1550
0.1550
0.1750
0.1800
0.1850
0.1900
0.2000
0.2250
0.2450
0.3200
0.4000
0.5100
0.6600
0.8100
0.9400
1.0550
1.1200
1.1750
1.1950
1.1900
1.2000
1.1950
1.1950
1.2200
1.2350
1.2600
1.2800
1.2900
1.2850
1.2800
1.2600
1.2500
1.2400
1.2400
1.2350
1.2300
1.2350
1.2450
1.2550
1.2600
1.2450
1.2400
1.2150
1.2100
1.1900
1.1650
1.1600
1.1300
1.1300
1.1600
1.1550
1.1600
1.1550
1.1400
1.1100
1.0900
1.0750
1.0450
1.0350
1.0400
1.0300
1.0250
1.0200
1.0550
1.0450
1.0350
1.0400
1.0400
1.0450
1.0300
1.0300
1.0250
1.0250
1.0250
1.0300
1.0600
1.0750
1.0800
1.1000
1.0850
1.0950
1.0800
1.1050
1.1250
1.1650
1.1950
1.2150
1.2350
1.2500
1.2600
1.2650
1.2750
1.2800
1.2750
1.2850
1.2800
1.3050
1.3200
1.3550
1.3550
1.3600
1.3600
1.3500
1.3500
1.3350
1.3500
1.3500
1.3600
1.3550
1.3600
1.3650
1.3800
1.3850
1.3700
1.3700
1.3800
1.3650
1.3650
1.3500
1.3450
1.3450
1.3550
1.3550
1.3700
1.3700
1.3550
1.3400
1.3200
1.2950
1.3100
1.3150
1.3300
1.3500
1.3500
1.3600
1.3450
1.3350
1.3250
1.3250
1.3100
1.3250
1.3300
1.3250
1.3300
1.3400
1.3400
1.3350
1.3450
1.3300
1.3400
1.3250
1.3200
1.3100
1.2900
1.2900
1.3050
1.3250
1.3300
1.3450
1.3550
1.3400
1.3350
1.3150
1.3100
1.3200
1.3250
1.3200
1.3100
1.3100
1.3150
1.3250
1.3450
1.3450
1.3450
1.3550
1.3600
1.3400
1.3250
1.3150
1.3100
1.3050
1.3150
1.3500
1.3450
1.3450
1.3550
1.3400
1.3350
1.3200
1.3250
1.3200
1.3200
1.3300
1.3550
1.3650
1.3950
1.3900
1.3900
1.4000
1.3900
1.3900
1.3950
1.4000
1.4000
1.4100
1.4550
1.4850
1.5100
1.5400
1.5450
1.5400
1.4950
1.4600
1.4300
1.3950
1.3750
1.3800
1.4300
1.4600
1.4900
1.5200
1.5350
1.5400
1.5050
1.4450
1.4150
1.3600
1.3300
1.3200
1.3200
1.3300
1.3350
1.3350
1.3250
1.3150
1.2950
1.2800
1.2750
1.2700
1.2550
1.2650
1.2600
1.2600
1.2650
1.2650
1.2650
1.2450
1.2600
1.2450
1.2650
1.2600
1.2600
1.2550
1.2600
1.2550
1.2800
1.2850
1.2750
1.2700
1.2700
1.2550
1.2500
1.2500
1.2350
1.2400
1.2450
1.2400
1.2600
1.2700
1.3300
1.4250
1.5600
1.7000
1.8550
1.9400
1.9550
1.9750
1.9650
2.0300
2.1600
2.2900
2.4150
2.4850
2.4100
2.1800
1.7900
1.3200
0.8900
0.6500
0.4900
0.4450
0.4400
0.4200
0.3750
0.3300
0.3000
0.2900
0.2500
0.1700
0.0800
0.0600
0.0950
0.1750
0.2950
0.3900
0.5100
0.6400
0.7350
0.8150
0.8600
0.9400
1.0550
1.1300
1.1900
1.2000
1.2050
1.1750
1.1350
1.1250
1.1300
1.1450
1.1750
1.1800
1.1650
1.1000
1.0800
1.1000
1.1700
1.2100
1.2350
1.2250
1.2250
1.2000
1.1850
1.1800
1.1250
1.1050
1.1150
1.1550
1.1950
1.2050
1.1900
1.1100
1.0250
0.9650
0.9650
0.9800
1.0050
1.0350
1.0650
1.0800
1.1100
1.1050
1.0550
0.9900
0.9150
0.8700
0.9100
0.9450
0.9900
1.0000
0.9800
0.9050
0.8300
0.7800
0.8000
0.8700
0.9700
1.0300
1.0400
0.9950
0.9500
0.9500
0.9800
1.0400
1.1200
1.1800
1.1700
1.1400
1.0500
1.0000
1.0150
1.0400
1.1050
1.1550
1.1700
1.1700
1.1750
1.2150
1.2150
1.2050
1.1750
1.1200
1.1000
1.0650
1.1000
1.1450
1.2300
1.2900
1.3800
1.4350
1.4600
1.4600
1.3900
1.2750
1.1700
1.1500
1.1800
1.2500
1.3300
1.3750
1.4100
1.3750
1.3050
1.2300
1.1750
1.1600
1.2000
1.2650
1.3200
1.3450
1.3600
1.3350
1.3150
1.2700
1.2000
1.1450
1.0950
1.1300
1.1800
1.2200
1.2250
1.1800
1.1650
1.1800
1.2350
1.2600
1.2450
1.2400
1.2200
1.1800
1.1650
1.1500
1.1800
1.2250
1.2350
1.2150
1.1850
1.1500
1.1400
1.1600
1.1750
1.1950
1.2000
1.2150
1.2200
1.2050
1.1950
1.1650
1.1750
1.1900
1.2150
1.2200
1.2200
1.2100
1.2000
1.2150
1.2250
1.2550
1.2750
1.2800
1.2600
1.2000
1.1800
1.1900
1.2000
1.2350
1.2650
1.2800
1.2850
1.2500
1.2400
1.2350
1.2450
1.2650
1.3100
1.3250
1.3100
1.2950
1.2500
1.2400
1.2600
1.2800
1.2950
1.3100
1.3250
1.3500
1.3800
1.3950
1.3650
1.3500
1.3100
1.2750
1.2850
1.2850
1.2800
1.2850
1.2950
1.3150
1.3300
1.3450
1.3450
1.3500
1.3550
1.3150
1.2950
1.2500
1.2250
1.2100
1.1950
1.1900
1.1950
1.1850
1.1550
1.1150
1.0850
1.0750
1.0800
1.0950
1.1200
1.1250
1.1050
1.0800
1.0450
1.0300
1.0300
1.0700
1.0900
1.1000
1.1100
1.0900
1.0600
1.0250
1.0250
1.0400
1.0550
1.0650
1.0750
1.0700
1.0600
1.0350
1.0550
1.0600
1.0600
1.0650
1.0850
1.0850
1.0600
1.0450
1.0200
1.0050
1.0750
1.1400
1.2550
1.3950
1.5600
1.6900
1.7900
1.8150
1.8200
1.8100
1.8350
1.9150
2.0600
2.2000
2.2800
2.2650
2.1100
1.8500
1.4950
1.1150
0.7850
0.5150
0.3500
0.2650
0.2250
0.1850
0.1550
0.1100
0.0800
0.0450
0.0150
0.0000
0.0150
0.0150
0.0350
0.0150
0.0200
0.0300
0.1000
0.2000
0.3350
0.4850
0.6550
0.7600
0.8350
0.8550
0.8550
0.8250
0.8100
0.8050
0.8300
0.8450
0.8850
0.8900
0.9050
0.9100
0.8900
0.8850
0.8750
0.8650
0.8550
0.8600
0.8600
0.8950
0.9000
0.9050
0.9100
0.9200
0.9250
0.9400
0.9350
0.9100
0.8600
0.7950
0.7500
0.7450
0.7700
0.8100
0.8400
0.8400
0.8000
0.7800
0.7350
0.7100
0.7200
0.7100
0.7050
0.7150
0.6950
0.6950
0.6850
0.6700
0.6750
0.6700
0.6800
0.6800
0.6650
0.6450
0.6450
0.6650
0.6850
0.7200
0.7100
0.6950
0.6900
0.6950
0.6850
0.6900
0.6800
0.6850
0.6750
0.6750
0.7200
0.7700
0.8300
0.8500
0.8450
0.8050
0.7700
0.7500
0.7650
0.8000
0.8450
0.8900
0.9000
0.9150
0.8900
0.8950
0.8850
0.8850
0.8900
0.9150
0.9450
0.9800
0.9950
0.9950
0.9900
0.9700
0.9700
0.9550
0.9650
1.0000
0.9650
0.9650
0.9500
0.9450
0.9500
0.9650
1.0000
1.0250
1.0400
1.0250
0.9950
0.9650
0.9800
0.9750
0.9650
0.9700
0.9600
0.9300
0.9100
0.9050
0.9250
0.9850
0.9950
1.0100
1.0050
1.0050
0.9850
0.9550
0.9300
0.9250
0.9350
0.9600
0.9850
0.9750
0.9750
0.9600
0.9550
0.9500
0.9300
0.9400
0.9450
0.9800
1.0000
1.0050
0.9850
0.9850
0.9600
0.9550
0.9650
0.9750
0.9900
0.9800
0.9800
0.9850
0.9900
0.9900
0.9800
0.9650
0.9550
0.9450
0.9450
0.9350
0.9350
0.9500
0.9800
1.0050
1.0150
1.0100
1.0300
1.0300
1.0200
1.0150
0.9950
0.9750
0.9800
0.9550
0.9800
1.0050
1.0500
1.0800
1.1000
1.1200
1.1050
1.0750
1.0550
1.0700
1.0750
1.0700
1.1050
1.1400
1.1700
1.1750
1.1700
1.1850
1.1800
1.1650
1.1350
1.1300
1.1250
1.1350
1.1500
1.1550
1.1850
1.2100
1.2450
1.2500
1.2500
1.2150
1.1650
1.1100
1.0600
1.0350
1.0500
1.0850
1.0950
1.0950
1.1050
1.0650
1.0200
0.9850
0.9500
0.9350
0.9300
0.9700
1.0050
1.0300
1.0250
1.0150
1.0100
0.9950
1.0250
1.0550
1.0650
1.0500
1.0400
1.0300
1.0250
1.0150
1.0100
1.0300
1.0400
1.0450
1.0600
1.0750
1.0550
1.0300
1.0000
0.9750
0.9500
0.9500
0.9800
1.0600
1.1950
1.3600
1.5050
1.6200
1.7650
1.8350
1.8600
1.8300
1.8050
1.8200
1.9100
2.0500
2.2050
2.3500
2.3500
2.2050
1.9300
1.5300
1.1000
0.7350
0.4950
0.3800
0.3400
0.3200
0.2700
0.2000
0.1350
0.0700
0.0500
0.0550
0.0400
0.0350
0.0100
0.0150
0.0250
0.0500
0.1200
0.2000
0.3300
0.4200
0.5500
0.6800
0.7850
0.8550
0.9250
0.9500
0.9550
0.9450
0.9550
0.9900
1.0350
1.0850
1.0950
1.0800
1.0600
1.0450
1.0150
1.0300
1.0350
1.0400
1.0450
1.0250
1.0350
1.0500
1.0550
1.0600
1.0650
1.0550
1.0700
1.0350
1.0100
0.9800
0.9750
0.9900
0.9800
0.9550
0.9450
0.9350
0.9200
0.9150
0.9050
0.9000
0.9150
0.9100
0.9100
0.8850
0.8600
0.8550
0.8400
0.8500
0.8900
0.9100
0.9050
0.9200
0.9000
0.8750
0.8600
0.8500
0.8500
0.8700
0.8800
0.8800
0.8750
0.8900
0.8750
0.9100
0.9300
0.9400
0.9450
0.9850
1.0000
1.0050
0.9850
0.9900
1.0150
1.0350
1.0600
1.1150
1.1450
1.1300
1.1450
1.1450
1.1550
1.1700
1.1800
1.1950
1.1900
1.1950
1.1950
1.2050
1.2100
1.2300
1.2350
1.2100
1.2300
1.2400
1.2600
1.2650
1.2500
1.2400
1.2200
1.2200
1.2300
1.2450
1.2550
1.2500
1.2600
1.2550
1.2550
1.2600
1.2450
1.2350
1.2200
1.2250
1.2500
1.2400
1.2800
1.2950
1.2900
1.2700
1.2550
1.2150
1.2000
1.1950
1.2150
1.2150
1.2400
1.2250
1.2300
1.2450
1.2350
1.2200
1.2200
1.2200
1.2100
1.2150
1.2150
1.2150
1.2300
1.2300
1.2400
1.2600
1.2500
1.2500
1.2450
1.2400
1.2450
1.2250
1.2250
1.2350
1.2500
1.2650
1.2750
1.2900
1.3000
1.2850
1.2750
1.2600
1.2500
1.2550
1.2450
1.2600
1.2600
1.2750
1.2750
1.2750
1.2650
1.2500
1.2550
1.2550
1.2750
1.2850
1.2900
1.3050
1.3300
1.3400
1.3650
1.3900
1.3850
1.3800
1.3650
1.3900
1.4000
1.4150
1.4350
1.4500
1.4700
1.4650
1.4450
1.4350
1.4200
1.4000
1.3700
1.3550
1.3550
1.3850
1.4150
1.4450
1.4600
1.4750
1.4600
1.4300
1.4100
1.3700
1.3400
1.3100
1.2700
1.2650
1.2450
1.2300
1.2450
1.2250
1.2450
1.2400
1.2250
1.2150
1.2100
1.1950
1.2100
1.2100
1.2000
1.2150
1.2100
1.2150
1.2300
1.2250
1.2250
1.2200
1.2050
1.2050
1.2000
1.2000
1.2050
1.2000
1.2250
1.2300
1.2450
1.2550
1.2400
1.2200
1.1900
1.1650
1.1600
1.1650
1.2150
1.2900
1.4100
1.5400
1.7200
1.8550
1.9600
1.9850
1.9650
1.9550
1.9850
2.0800
2.2250
2.4050
2.5150
2.5150
2.3850
2.0300
1.5950
1.1500
0.8100
0.5700
0.4600
0.3800
0.3200
0.2900
0.2700
0.2400
0.2300
0.2150
0.2000
0.2050
0.1750
0.1900
0.1900
0.2050
0.2550
0.3400
0.4450
0.5800
0.7350
0.8850
0.9850
1.0750
1.1150
1.1050
1.1050
1.1100
1.1150
1.1250
1.1500
1.1800
1.2050
1.2100
1.1950
1.1750
1.1650
1.1400
1.1250
1.1250
1.1300
1.1400
1.1650
1.1600
1.1750
1.1800
1.1700
1.1450
1.1350
1.1150
1.0800
1.0900
1.0900
1.0750
1.0800
1.0850
1.0950
1.0800
1.0750
1.0650
1.0500
1.0400
1.0100
0.9850
0.9900
0.9750
0.9850
0.9800
0.9800
0.9750
0.9850
0.9700
0.9700
0.9500
0.9400
0.9200
0.9400
0.9500
0.9700
0.9700
0.9800
0.9700
0.9850
0.9950
0.9800
0.9850
1.0100
1.0100
1.0150
1.0300
1.0550
1.0750
1.1050
1.1400
1.1350
1.1400
1.1350
1.1500
1.1700
1.1850
1.1900
1.2200
1.2400
1.2550
1.2750
1.2900
1.3100
1.3150
1.3000
1.3000
1.2900
1.2900
1.2850
1.2950
1.3100
1.3100
1.3100
1.3300
1.3300
1.3200
1.3150
1.3050
1.2950
1.2850
1.3100
1.3100
1.3050
1.3150
1.3300
1.3350
1.3450
1.3500
1.3100
1.3050
1.2850
1.2900
1.2750
1.2950
1.3150
1.3150
1.3350
1.3250
1.3200
1.3300
1.3200
1.2950
1.2950
1.2850
1.2750
1.2900
1.2850
1.3100
1.3200
1.3150
1.3150
1.3150
1.3150
1.3100
1.3000
1.2800
1.2650
1.2850
1.3000
1.3000
1.3300
1.3150
1.3200
1.3250
1.3100
1.3300
1.3050
1.3050
1.3100
1.3200
1.3150
1.3200
1.3450
1.3400
1.3450
1.3450
1.3350
1.3250
1.3200
1.3100
1.3100
1.3250
1.3500
1.3600
1.3700
1.3850
1.3750
1.3850
1.4050
1.4000
1.4050
1.4100
1.4000
1.4150
1.4050
1.4400
1.4650
1.4850
1.5050
1.5250
1.5250
1.5100
1.4850
1.4700
1.4550
1.4400
1.4450
1.4450
1.4650
1.4800
1.5050
1.5300
1.5350
1.5200
1.5000
1.4600
1.4250
1.3900
1.3850
1.3600
1.3600
1.3650
1.3550
1.3300
1.3200
1.3050
1.2800
1.2550
1.2600
1.2400
1.2750
1.2850
1.2800
1.3000
1.2950
1.2750
1.2700
1.2600
1.2500
1.2500
1.2600
1.2600
1.2650
1.2850
1.3000
1.3000
1.2900
1.3000
1.2900
1.3000
1.2850
1.2750
1.2850
1.2850
1.2850
1.2900
1.2850
1.2700
1.2600
1.2650
1.2750
1.3050
1.3800
1.5000
1.6650
1.7950
1.9300
2.0250
2.0350
2.0200
2.0100
2.0550
2.1400
2.2700
2.4550
2.6050
2.6750
2.6200
2.4150
2.0900
1.7100
1.3350
1.0500
0.8500
0.7300
0.6450
0.5850
0.5150
0.4550
0.4050
0.3700
0.3350
0.3400
0.3250
0.3100
0.2900
0.2950
0.2900
0.3050
0.3350
0.3650
0.4500
0.5700
0.7000
0.8250
0.9650
1.0500
1.1150
1.1550
1.1600
1.1550
1.1500
1.1400
1.1550
1.1850
1.2000
1.2300
1.2400
1.2300
1.2150
1.2050
1.1850
1.1850
1.1750
1.1750
1.1900
1.1950
1.1950
1.2000
1.2100
1.1950
1.1800
1.1950
1.1800
1.1750
1.1550
1.1550
1.1450
1.1250
1.1100
1.1150
1.1100
1.1100
1.1000
1.0750
1.0650
1.0350
1.0450
1.0350
1.0200
1.0300
1.0250
1.0300
1.0200
1.0050
1.0050
1.0050
1.0050
0.9850
0.9700
0.9700
0.9750
0.9750
0.9800
0.9850
0.9950
1.0000
0.9800
0.9900
0.9900
0.9900
0.9950
1.0200
1.0450
1.0600
1.0850
1.1050
1.1200
1.1150
1.1300
1.1500
1.1500
1.1600
1.1700
1.1750
1.1850
1.2200
1.2500
1.2650
1.2900
1.3100
1.3200
1.3100
1.3100
1.3150
1.3200
1.3250
1.3350
1.3400
1.3350
1.3350
1.3600
1.3500
1.3600
1.3650
1.3400
1.3500
1.3450
1.3500
1.3500
1.3550
1.3550
1.3550
1.3700
1.3750
1.3550
1.3500
1.3450
1.3400
1.3300
1.3250
1.3400
1.3450
1.3600
1.3600
1.3650
1.3550
1.3400
1.3350
1.3250
1.3150
1.2900
1.2850
1.2900
1.3000
1.3050
1.3300
1.3050
1.3100
1.2950
1.3100
1.3100
1.2950
1.2850
1.3000
1.3000
1.3150
1.2900
1.3150
1.3250
1.3200
1.3150
1.3200
1.3150
1.3200
1.3100
1.3100
1.3000
1.3050
1.3150
1.3350
1.3500
1.3400
1.3200
1.3200
1.3200
1.3200
1.3200
1.3150
1.3300
1.3350
1.3350
1.3500
1.3600
1.3750
1.3850
1.3900
1.3850
1.3900
1.3950
1.3950
1.4200
1.4350
1.4350
1.4500
1.4650
1.4600
1.4700
1.4850
1.5000
1.5100
1.5150
1.5350
1.5300
1.5350
1.5400
1.5250
1.5100
1.4950
1.4750
1.4650
1.4700
1.4850
1.5000
1.5300
1.5300
1.5500
1.5350
1.5050
1.4850
1.4350
1.4050
1.3900
1.3700
1.3550
1.3450
1.3350
1.3100
1.3100
1.3100
1.3050
1.3100
1.3000
1.3050
1.3000
1.2850
1.2700
1.2750
1.2750
1.2850
1.3000
1.3050
1.3150
1.3150
1.3100
1.3050
1.3000
1.2850
1.2800
1.2900
1.2850
1.3000
1.3000
1.3100
1.3200
1.3400
1.3200
1.3100
1.2700
1.2500
1.2550
1.2450
1.2650
1.3350
1.4600
1.5750
1.7150
1.8500
1.9450
1.9750
1.9850
1.9950
2.0200
2.1100
2.2850
2.4800
2.6900
2.8200
2.8250
2.6550
2.3100
1.8900
1.4950
1.1550
0.9300
0.8050
0.7300
0.6750
0.6100
0.5600
0.4900
0.4500
0.4250
0.3950
0.3800
0.3800
0.3700
0.3600
0.3850
0.4150
0.4650
0.5550
0.6650
0.7950
0.9250
1.0450
1.1350
1.2050
1.2550
1.2750
1.2800
1.2900
1.3050
1.3250
1.3350
1.3650
1.3600
1.3600
1.3700
1.3850
1.3750
1.3600
1.3700
1.3700
1.3650
1.3500
1.3700
1.3700
1.3650
1.3300
1.3450
1.3200
1.3150
1.2900
1.2750
1.2900
1.2800
1.2800
1.2650
1.2750
1.2500
1.2400
1.2100
1.2000
1.1950
1.1800
1.1750
1.1600
1.1800
1.1800
1.1850
1.1750
1.1750
1.1600
1.1600
1.1450
1.1400
1.1350
1.1200
1.1150
1.1300
1.1350
1.1550
1.1750
1.1700
1.1650
1.1600
1.1550
1.1550
1.1700
1.1850
1.2050
1.2200
1.2500
1.2700
1.2950
1.3100
1.3250
1.3500
1.3400
1.3550
1.3450
1.3550
1.3700
1.4050
1.4250
1.4350
1.4550
1.4600
1.4750
1.4800
1.4750
1.4650
1.4650
1.4750
1.4900
1.4950
1.5100
1.5250
1.5200
1.5250
1.5250
1.5100
1.5100
1.5000
1.4900
1.4950
1.5050
1.5100
1.5050
1.5150
1.5300
1.5300
1.5200
1.5150
1.4900
1.4950
1.4850
1.4750
1.4900
1.4800
1.4850
1.4900
1.4900
1.4900
1.4950
1.4800
1.4850
1.4650
1.4650
1.4650
1.4650
1.4600
1.4750
1.4850
1.5050
1.4850
1.4950
1.4750
1.4800
1.4650
1.4650
1.4650
1.4750
1.4700
1.5000
1.5050
1.5150
1.5200
1.5150
1.5050
1.4900
1.4850
1.4750
1.4750
1.4650
1.4700
1.4750
1.4850
1.4900
1.4950
1.4900
1.4850
1.4950
1.4800
1.5000
1.5100
1.4950
1.5000
1.4950
1.5300
1.5350
1.5350
1.5700
1.5700
1.5650
1.5800
1.5750
1.5750
1.5950
1.6050
1.6100
1.6250
1.6450
1.6100
1.6350
1.6550
1.6600
1.6700
1.6800
1.6700
1.6550
1.6500
1.6350
1.6450
1.6400
1.6300
1.6500
1.6600
1.6750
1.7000
1.7050
1.6850
1.6650
1.6350
1.6100
1.5800
1.5600
1.5550
1.5400
1.5150
1.5100
1.4650
1.4500
1.4500
1.4650
1.4650
1.4600
1.4650
1.4500
1.4450
1.4500
1.4600
1.4400
1.4600
1.4400
1.4350
1.4400
1.4400
1.4450
1.4350
1.4400
1.4350
1.4350
1.4200
1.4300
1.4250
1.4400
1.4200
1.3950
1.4050
1.4150
1.4350
1.4400
1.4400
1.4300
1.4300
1.4150
1.4200
1.4400
1.5200
1.6050
1.7650
1.9250
2.0650
2.1700
2.2150
2.2000
2.1700
2.1550
2.1900
2.2750
2.4350
2.6150
2.7500
2.7750
2.6600
2.3450
1.9100
1.4750
1.0900
0.8450
0.6950
0.6150
0.5600
0.5150
0.4800
0.4400
0.4200
0.4150
0.3900
0.3800
0.3600
0.3400
0.3400
0.3400
0.3650
0.4100
0.4900
0.5950
0.7250
0.8650
1.0000
1.1150
1.2000
1.2750
1.3100
1.3200
1.3100
1.3100
1.3200
1.3300
1.3550
1.3700
1.3700
1.3700
1.3750
1.3700
1.3650
1.3600
1.3450
1.3400
1.3500
1.3700
1.3700
1.3700
1.3650
1.3550
1.3400
1.3050
1.3050
1.2950
1.2700
1.2700
1.2600
1.2400
1.2550
1.2600
1.2450
1.2300
1.2200
1.2000
1.1850
1.1850
1.1850
1.1700
1.1650
1.1650
1.1450
1.1600
1.1550
1.1350
1.1400
1.1200
1.1200
1.0950
1.1000
1.1100
1.1150
1.1250
1.1300
1.1600
1.1450
1.1600
1.1500
1.1600
1.1500
1.1700
1.1650
1.1750
1.1950
1.2250
1.2350
1.2950
1.3050
1.3100
1.3150
1.3300
1.3200
1.3350
1.3450
1.3450
1.3700
1.4000
1.4100
1.4450
1.4500
1.4500
1.4500
1.4500
1.4500
1.4450
1.4550
1.4400
1.4500
1.4650
1.4900
1.5100
1.5000
1.5000
1.4950
1.5000
1.5000
1.4850
1.4800
1.4800
1.4950
1.5150
1.5300
1.5350
1.5150
1.5150
1.4850
1.4850
1.4750
1.4850
1.4850
1.4900
1.5000
1.5000
1.5050
1.5200
1.4950
1.4950
1.4800
1.4850
1.4600
1.4550
1.4550
1.4450
1.4750
1.4950
1.4950
1.5050
1.5050
1.4950
1.4800
1.4850
1.4650
1.4750
1.4600
1.4600
1.4700
1.4800
1.4950
1.5050
1.5050
1.5050
1.5000
1.4900
1.4950
1.4800
1.4650
1.4750
1.4900
1.5050
1.5100
1.5150
1.5100
1.5000
1.4850
1.4850
1.4800
1.5000
1.4900
1.5050
1.5150
1.5300
1.5250
1.5250
1.5250
1.5200
1.5350
1.5300
1.5350
1.5350
1.5450
1.5450
1.5750
1.5950
