-167
-167
-167
-167
-167
-167
-167
-163
-163
-166
-168
-170
-175
-177
-184
-194
-202
-208
-213
-219
-217
-213
-214
-212
-210
-212
-212
-213
-213
-213
-216
-216
-223
-223
-219
-214
-211
-211
-215
-220
-220
-223
-222
-222
-221
-221
-222
-220
-221
-218
-218
-216
-213
-216
-210
-207
-199
-180
-151
-114
-79
-55
-47
-48
-46
-40
-26
-3
22
45
49
31
-28
-115
-216
-300
-358
-384
-396
-402
-410
-424
-434
-434
-428
-415
-412
-409
-405
-397
-390
-380
-360
-337
-314
-289
-267
-246
-235
-228
-230
-234
-234
-228
-219
-212
-220
-236
-246
-242
-219
-197
-192
-199
-207
-214
-216
-208
-203
-199
-202
-209
-217
-223
-221
-221
-225
-228
-235
-237
-235
-237
-241
-240
-241
-240
-233
-226
-227
-230
-242
-245
-241
-243
-246
-253
-252
-242
-230
-230
-235
-241
-250
-264
-279
-294
-299
-297
-286
-275
-267
-255
-242
-231
-232
-243
-254
-260
-258
-252
-243
-234
-227
-218
-213
-208
-207
-205
-211
-214
-214
-208
-198
-192
-184
-177
-175
-178
-178
-183
-193
-201
-207
-208
-195
-181
-177
-170
-171
-181
-184
-191
-196
-191
-188
-187
-190
-192
-184
-183
-180
-186
-189
-189
-185
-183
-194
-207
-212
-210
-201
-188
-185
-184
-185
-186
-185
-186
-187
-185
-188
-197
-208
-215
-208
-195
-187
-181
-180
-192
-204
-214
-212
-204
-191
-178
-170
-174
-183
-195
-208
-209
-205
-195
-187
-181
-185
-188
-190
-191
-196
-195
-195
-197
-198
-193
-190
-186
-178
-173
-176
-175
-185
-192
-194
-196
-188
-180
-182
-184
-189
-183
-172
-164
-167
-174
-175
-171
-164
-152
-146
-140
-138
-140
-149
-156
-166
-166
-167
-164
-163
-168
-170
-175
-160
-145
-135
-130
-134
-148
-163
-180
-186
-182
-176
-168
-171
-174
-180
-190
-202
-210
-215
-217
-219
-214
-209
-200
-190
-186
-186
-191
-196
-202
-204
-199
-202
-200
-201
-202
-197
-193
-191
-182
-176
-173
-179
-194
-210
-212
-199
-182
-170
-170
-181
-190
-202
-199
-182
-157
-129
-98
-82
-74
-74
-74
-65
-37
7
56
85
82
42
-34
-127
-211
-267
-303
-324
-340
-364
-390
-406
-422
-429
-430
-427
-420
-419
-419
-416
-412
-402
-387
-375
-369
-361
-341
-317
-289
-261
-241
-229
-223
-221
-223
-228
-234
-232
-221
-206
-194
-194
-199
-208
-216
-220
-218
-214
-210
-205
-201
-198
-202
-204
-212
-213
-214
-213
-209
-210
-215
-221
-226
-230
-234
-237
-241
-237
-234
-231
-231
-232
-232
-234
-238
-249
-259
-262
-258
-248
-237
-232
-233
-248
-264
-275
-271
-253
-240
-233
-235
-244
-253
-256
-258
-252
-241
-243
-241
-241
-237
-237
-233
-225
-215
-202
-194
-196
-200
-208
-209
-202
-195
-194
-189
-190
-189
-182
-178
-177
-184
-187
-180
-172
-166
-166
-171
-180
-187
-188
-189
-187
-183
-174
-166
-163
-165
-170
-173
-174
-174
-171
-168
-171
-181
-192
-195
-190
-180
-173
-175
-184
-186
-190
-187
-190
-198
-200
-197
-191
-184
-180
-175
-173
-176
-179
-179
-180
-186
-190
-196
-189
-179
-174
-174
-183
-189
-191
-188
-181
-181
-187
-192
-191
-188
-177
-175
-168
-169
-170
-176
-184
-185
-179
-171
-167
-171
-172
-172
-171
-173
-180
-181
-180
-174
-170
-166
-170
-179
-184
-189
-186
-182
-175
-173
-174
-171
-171
-172
-171
-167
-164
-158
-155
-151
-151
-147
-144
-144
-142
-142
-140
-141
-144
-150
-154
-161
-163
-157
-143
-134
-126
-131
-137
-144
-143
-140
-149
-164
-179
-185
-182
-177
-173
-167
-169
-176
-179
-181
-185
-187
-193
-195
-196
-197
-198
-193
-187
-181
-179
-185
-192
-198
-206
-205
-200
-195
-195
-199
-200
-195
-187
-188
-185
-191
-198
-202
-203
-201
-205
-207
-203
-183
-153
-122
-91
-70
-65
-71
-80
-74
-46
-1
49
84
87
52
-20
-107
-195
-267
-321
-354
-373
-380
-386
-389
-397
-409
-417
-424
-422
-417
-418
-417
-413
-404
-394
-381
-366
-351
-332
-306
-280
-257
-237
-224
-222
-223
-226
-230
-225
-221
-212
-203
-202
-198
-194
-196
-208
-225
-236
-240
-229
-217
-205
-199
-191
-191
-195
-201
-216
-230
-237
-235
-232
-229
-231
-231
-232
-232
-241
-248
-257
-261
-261
-259
-254
-248
-244
-240
-239
-245
-253
-257
-264
-268
-272
-272
-271
-261
-248
-242
-242
-240
-246
-253
-258
-263
-267
-264
-262
-255
-249
-240
-234
-233
-225
-225
-219
-213
-211
-207
-204
-203
-213
-226
-232
-214
-195
-177
-168
-169
-173
-184
-189
-190
-187
-187
-191
-194
-193
-190
-186
-187
-188
-193
-189
-193
-194
-195
-192
-198
-206
-216
-206
-190
-173
-163
-163
-167
-180
-192
-203
-208
-211
-204
-201
-199
-201
-204
-209
-207
-202
-190
-185
-183
-185
-190
-194
-203
-205
-199
-190
-181
-179
-185
-188
-191
-194
-195
-198
-201
-205
-209
-205
-198
-192
-189
-183
-183
-181
-182
-183
-188
-187
-187
-194
-197
-197
-190
-180
-167
-156
-155
-159
-170
-182
-191
-193
-189
-187
-182
-183
-185
-190
-191
-189
-187
-180
-180
-171
-167
-170
-174
-173
-170
-160
-159
-158
-153
-149
-149
-149
-152
-152
-146
-143
-143
-148
-152
-161
-168
-175
-171
-164
-150
-140
-132
-125
-128
-139
-155
-182
-192
-192
-186
-179
-171
-172
-174
-179
-178
-183
-193
-206
-217
-214
-210
-206
-201
-196
-193
-191
-190
-188
-184
-174
-169
-172
-174
-179
-180
-181
-180
-188
-187
-185
-187
-187
-195
-203
-206
-210
-210
-203
-188
-168
-145
-119
-92
-64
-44
-37
-38
-43
-38
-28
2
35
58
59
27
-35
-121
-207
-283
-334
-369
-388
-397
-403
-404
-402
-404
-410
-418
-423
-427
-429
-430
-426
-419
-398
-375
-352
-324
-293
-271
-247
-235
-227
-228
-225
-223
-218
-211
-208
-205
-214
-225
-232
-224
-214
-206
-206
-205
-210
-215
-219
-222
-225
-223
-224
-223
-225
-228
-228
-228
-230
-233
-237
-238
-242
-242
-245
-244
-246
-249
-250
-253
-257
-259
-260
-264
-264
-263
-259
-259
-263
-269
-273
-278
-273
-266
-262
-261
-260
-262
-263
-262
-263
-260
-256
-250
-246
-243
-239
-241
-240
-238
-234
-229
-222
-218
-215
-209
-203
-200
-200
-204
-209
-209
-202
-198
-193
-190
-189
-189
-188
-189
-189
-194
-192
-190
-191
-189
-190
-195
-194
-192
-194
-195
-193
-196
-193
-195
-194
-193
-194
-198
-200
-203
-201
-203
-204
-205
-203
-201
-200
-199
-198
-197
-195
-195
-200
-203
-198
-196
-192
-194
-201
-204
-206
-210
-208
-205
-209
-209
-209
-210
-207
-211
-209
-208
-207
-203
-205
-202
-204
-202
-204
-199
-199
-198
-197
-200
-206
-207
-209
-213
-216
-218
-219
-216
-211
-209
-208
-210
-208
-210
-211
-207
-205
-204
-199
-197
-192
-190
-190
-192
-190
-193
-197
-196
-193
-189
-192
-191
-190
-192
-190
-187
-182
-172
-165
-160
-159
-157
-162
-167
-171
-177
-179
-181
-180
-175
-168
-161
-161
-158
-161
-162
-168
-171
-174
-179
-183
-187
-190
-192
-194
-193
-195
-193
-194
-195
-197
-199
-202
-200
-199
-201
-205
-209
-211
-213
-213
-215
-215
-212
-212
-212
-210
-209
-212
-213
-221
-225
-233
-235
-233
-226
-219
-218
-215
-216
-211
-212
-200
-182
-161
-132
-103
-72
-48
-37
-38
-41
-40
-32
-13
14
41
56
55
28
-24
-99
-181
-256
-315
-353
-373
-381
-388
-394
-400
-406
-409
-410
-412
-417
-417
-419
-415
-409
-405
-395
-379
-357
-330
-301
-271
-249
-230
-217
-213
-218
-216
-219
-218
-211
-205
-201
-198
-196
-196
-199
-202
-206
-206
-208
-208
-206
-205
-203
-206
-208
-213
-215
-220
-221
-219
-220
-223
-223
-225
-226
-222
-226
-231
-234
-241
-243
-246
-248
-248
-247
-249
-247
-250
-252
-250
-254
-254
-258
-261
-262
-265
-264
-262
-260
-257
-254
-255
-254
-253
-254
-250
-255
-247
-243
-237
-232
-231
-227
-226
-226
-224
-219
-216
-214
-211
-206
-203
-198
-198
-195
-190
-189
-189
-188
-187
-186
-185
-180
-180
-175
-174
-175
-174
-173
-176
-177
-179
-178
-178
-178
-176
-176
-171
-173
-171
-176
-177
-176
-177
-178
-177
-180
-176
-174
-174
-177
-175
-177
-180
-181
-178
-180
-181
-179
-178
-178
-174
-174
-178
-177
-184
-182
-183
-181
-184
-176
-177
-172
-173
-176
-174
-175
-177
-178
-179
-179
-178
-176
-173
-171
-171
-174
-177
-177
-176
-176
-178
-178
-175
-174
-175
-170
-170
-171
-170
-172
-172
-174
-173
-178
-175
-171
-167
-167
-165
-168
-168
-163
-165
-165
-164
-164
-159
-159
-153
-150
-146
-144
-146
-146
-144
-141
-136
-134
-131
-132
-132
-130
-129
-138
-140
-145
-147
-145
-142
-134
-129
-123
-122
-121
-125
-136
-142
-147
-152
-156
-157
-161
-164
-163
-166
-165
-163
-165
-171
-171
-172
-172
-173
-174
-175
-170
-168
-169
-168
-170
-169
-169
-169
-170
-169
-169
-168
-165
-168
-165
-165
-165
-167
-172
-175
-179
-181
-179
-168
-149
-122
-91
-64
-41
-37
-37
-43
-52
-46
-36
-9
26
54
69
55
7
-67
-146
-218
-269
-302
-323
-337
-344
-354
-361
-366
-370
-371
-373
-375
-374
-374
-377
-370
-361
-350
-331
-300
-271
-240
-213
-194
-183
-176
-177
-177
-172
-170
-168
-163
-166
-164
-167
-170
-172
-172
-177
-176
-179
-174
-175
-173
-173
-177
-181
-183
-189
-193
-195
-195
-198
-195
-195
-195
-195
-202
-204
-207
-209
-214
-217
-219
-223
-225
-229
-232
-236
-240
-245
-249
-255
-256
-262
-263
-262
-256
-255
-247
-246
-241
-237
-232
-225
-220
-215
-211
-204
-201
-197
-189
-190
-185
-182
-182
-181
-177
-181
-180
-176
-172
-168
-168
-165
-167
-165
-168
-167
-168
-168
-165
-164
-157
-159
-156
-156
-155
-153
-156
-158
-162
-161
-161
-161
-159
-158
-154
-153
-157
-159
-160
-164
-165
-169
-169
-169
-167
-165
-165
-165
-165
-167
-172
-171
-171
-177
-174
-173
-172
-171
-173
-171
-175
-172
-171
-171
-171
-173
-171
-168
-169
-168
-167
-167
-166
-169
-173
-173
-174
-175
-174
-171
-169
-164
-163
-166
-167
-168
-171
-172
-171
-173
-169
-170
-167
-171
-163
-167
-165
-167
-167
-168
-168
-167
-163
-160
-157
-155
-152
-153
-148
-150
-150
-148
-148
-145
-141
-134
-130
-126
-125
-129
-132
-138
-143
-146
-150
-150
-144
-136
-130
-126
-124
-128
-135
-142
-152
-159
-165
-168
-166
-167
-165
-168
-166
-173
-173
-180
-180
-184
-181
-182
-182
-183
-179
-174
-174
-173
-174
-177
-180
-183
-182
-185
-187
-186
-185
-183
-181
-177
-178
-180
-178
-177
-182
-187
-188
-188
-184
-180
-169
-153
-130
-104
-79
-49
-29
-22
-27
-32
-30
-18
7
36
67
81
71
29
-44
-133
-222
-291
-337
-361
-378
-383
-393
-400
-405
-410
-411
-411
-412
-408
-405
-402
-396
-388
-376
-356
-333
-301
-272
-248
-226
-209
-199
-196
-194
-195
-193
-191
-189
-190
-190
-189
-186
-187
-187
-188
-187
-191
-189
-188
-192
-197
-196
-197
-197
-197
-201
-200
-201
-203
-200
-206
-208
-211
-215
-216
-220
-219
-221
-219
-219
-222
-228
-228
-233
-238
-241
-239
-240
-238
-236
-237
-233
-236
-237
-236
-236
-238
-240
-244
-239
-235
-232
-227
-227
-221
-220
-216
-216
-213
-213
-209
-205
-201
-196
-190
-185
-186
-186
-183
-180
-179
-174
-174
-173
-171
-171
-169
-167
-165
-165
-165
-164
-166
-165
-169
-169
-165
-166
-165
-164
-164
-161
-162
-168
-162
-164
-166
-168
-170
-170
-166
-167
-162
-163
-162
-164
-167
-171
-168
-170
-171
-171
-170
-167
-169
-170
-167
-172
-175
-172
-171
-171
-168
-166
-167
-164
-165
-168
-168
-169
-169
-168
-167
-169
-163
-164
-162
-161
-164
-162
-164
-165
-166
-166
-165
-164
-160
-160
-159
-156
-157
-158
-159
-159
-160
-162
-164
-159
-157
-157
-155
-152
-151
-153
-155
-154
-155
-150
-148
-147
-143
-139
-135
-132
-131
-131
-132
-134
-132
-130
-130
-126
-121
-120
-122
-122
-129
-133
-137
-139
-145
-143
-142
-139
-137
-134
-130
-134
-138
-144
-152
-160
-167
-169
-173
-175
-177
-177
-176
-176
-176
-181
-180
-182
-185
-189
-191
-190
-187
-188
-184
-181
-184
-184
-185
-185
-185
-187
-188
-184
-183
-183
-178
-176
-176
-173
-177
-181
-189
-188
-193
-190
-177
-155
-130
-96
-66
-39
-27
-25
-28
-27
-20
6
37
67
83
68
19
-57
-145
-227
-288
-330
-353
-363
-366
-370
-374
-376
-380
-382
-385
-389
-389
-387
-384
-379
-370
-353
-332
-302
-274
-248
-227
-211
-203
-204
-201
-202
-202
-196
-192
-192
-187
-186
-186
-186
-189
-189
-197
-193
-191
-191
-190
-188
-189
-190
-195
-195
-199
-200
-201
-202
-204
-205
-207
-204
-204
-208
-211
-214
-216
-218
-219
-223
-225
-226
-221
-223
-224
-224
-228
-229
-232
-236
-237
-240
-238
-237
-237
-235
-233
-232
-232
-234
-235
-235
-231
-229
-227
-221
-219
-216
-210
-204
-202
-198
-193
-191
-191
-188
-184
-182
-178
-174
-172
-167
-170
-170
-167
-165
-165
-161
-162
-159
-154
-153
-153
-153
-154
-152
-154
-153
-152
-151
-152
-149
-148
-147
-147
-150
-152
-152
-152
-154
-153
-152
-151
-148
-148
-148
-148
-152
-153
-155
-160
-160
-159
-157
-156
-157
-157
-158
-156
-162
-161
-168
-169
-172
-175
-174
-175
-172
-171
-169
-167
-167
-170
-173
-174
-175
-175
-173
-174
-174
-175
-173
-172
-170
-171
-173
-175
-176
-178
-177
-176
-176
-175
-174
-172
-174
-175
-177
-176
-179
-179
-180
-178
-178
-176
-171
-166
-163
-163
-162
-162
-164
-161
-156
-159
-152
-149
-144
-143
-142
-136
-134
-135
-138
-142
-146
-147
-144
-149
-149
-144
-143
-137
-138
-137
-134
-134
-136
-143
-144
-150
-155
-157
-161
-168
-173
-172
-178
-183
-181
-181
-177
-175
-176
-173
-177
-181
-181
-178
-181
-182
-184
-183
-180
-184
-177
-177
-179
-179
-180
-182
-188
-186
-186
-183
-182
-179
-178
-175
-177
-179
-186
-185
-184
-183
-171
-151
-125
-96
-61
-39
-30
-25
-33
-38
-32
-14
17
49
74
80
55
-7
-86
-174
-250
-303
-339
-359
-369
-382
-392
-397
-400
-404
-402
-403
-403
-402
-401
-397
-386
-368
-342
-311
-279
-251
-231
-214
-205
-202
-202
-204
-203
-201
-195
-195
-190
-189
-191
-194
-199
-200
-196
-198
-199
-200
-195
-194
-190
-195
-196
-204
-208
-207
-210
-213
-214
-212
-212
-213
-215
-221
-217
-222
-224
-225
-231
-233
-236
-235
-237
-237
-235
-237
-238
-238
-242
-241
-246
-246
-247
-244
-243
-240
-238
-232
-230
-231
-231
-226
-225
-226
-224
-219
-218
-210
-206
-201
-197
-192
-194
-192
-191
-188
-187
-184
-179
-179
-177
-178
-180
-179
-177
-177
-181
-178
-175
-175
-172
-172
-169
-170
-169
-169
-169
-170
-174
-177
-177
-175
-173
-171
-172
-173
-170
-172
-172
-177
-176
-179
-181
-180
-177
-177
-173
-175
-175
-176
-179
-180
-182
-184
-183
-185
-182
-178
-179
-177
-178
-178
-180
-179
-181
-175
-180
-180
-177
-178
-180
-175
-179
-179
-175
-177
-177
-177
-177
-175
-171
-172
-168
-169
-171
-173
-176
-178
-177
-177
-175
-175
-176
-172
-167
-170
-168
-167
-168
-168
-169
-168
-171
-167
-164
-159
-157
-154
-153
-152
-155
-153
-153
-152
-148
-143
-137
-136
-135
-141
-143
-146
-151
-153
-155
-151
-149
-144
-139
-137
-136
-137
-143
-150
-157
-161
-166
-169
-168
-168
-173
-174
-174
-173
-176
-178
-179
-181
-183
-183
-184
-182
-180
-177
-178
-178
-178
-181
-185
-184
-185
-186
-185
-182
-181
-182
-180
-178
-177
-181
-184
-185
-188
-190
-189
-191
-189
-184
-174
-153
-129
-100
-75
-52
-43
-44
-49
-47
-39
-11
19
50
64
44
-7
-83
-166
-232
-282
-308
-321
-328
-338
-345
-357
-365
-369
-373
-376
-377
-379
-378
-374
-366
-351
-331
-305
-281
-254
-229
-215
-207
-201
-202
-203
-201
-195
-190
-186
-187
-189
-190
-188
-186
-184
-185
-189
-189
-190
-188
-191
-192
-190
-194
-192
-194
-195
-195
-196
-197
-194
-197
-203
-208
-213
-217
-214
-214
-214
-214
-214
-216
-219
-220
-222
-229
-229
-233
-232
-236
-235
-237
-237
-237
-234
-232
-232
-233
-232
-233
-234
-235
-233
-230
-224
-221
-217
-212
-208
-206
-206
-207
-201
-199
-196
-192
-186
-184
-178
-176
-174
-175
-174
-171
-174
-174
-175
-174
-168
-165
-166
-161
-163
-165
-167
-170
-169
-168
-165
-166
-163
-162
-160
-161
-160
-162
-164
-169
-171
-169
-170
-168
-166
-167
-167
-166
-167
-168
-172
-173
-177
-179
-177
-179
-178
-177
-177
-173
-168
-163
-164
-169
-173
-183
-189
-183
-176
-173
-167
-171
-176
-184
-187
-188
-187
-189
-186
-187
-183
-182
-177
-177
-179
-178
-181
-185
-180
-182
-182
-179
-177
-173
-171
-170
-171
-173
-174
-174
-170
-173
-166
-167
-161
-153
-154
-150
-149
-147
-149
-149
-152
-155
-156
-153
-152
-150
-147
-153
-155
-153
-152
-147
-143
-146
-145
-150
-150
-158
-159
-166
-179
-184
-185
-186
-189
-188
-187
-187
-188
-190
-196
-193
-192
-193
-196
-199
-198
-197
-194
-196
-191
-195
-192
-194
-193
-197
-198
-200
-202
-207
-208
-207
-204
-203
-201
-200
-199
-203
-205
-208
-213
-219
-223
-224
-219
-213
-196
-177
-152
-132
-122
-118
-117
-115
-101
-74
-36
5
38
46
35
-3
-62
-130
-200
-256
-295
-319
-333
-339
-347
-357
-372
-381
-386
-390
-393
-395
-388
-387
-379
-369
-353
-333
-307
-281
-260
-242
-229
-225
-222
-225
-224
-222
-220
-218
-216
-216
-216
-214
-218
-217
-216
-213
-212
-214
-215
-212
-215
-216
-219
-224
-226
-230
-228
-230
-229
-229
-228
-231
-236
-237
-237
-235
-237
-244
-248
-253
-255
-251
-253
-250
-249
-249
-249
-251
-256
-260
-261
-259
-258
-259
-259
-256
-253
-253
-252
-255
-255
-259
-258
-254
-252
-247
-242
-237
-237
-235
-232
-232
-228
-227
-227
-221
-211
-210
-204
-199
-196
-193
-197
-201
-204
-208
-205
-203
-202
-200
-197
-192
-191
-191
-191
-197
-199
-198
-202
-198
-197
-197
-195
-192
-189
-187
-191
-199
-205
-209
-213
-213
-207
-199
-194
-194
-199
-206
-210
-211
-213
-207
-203
-200
-200
-201
-202
-208
-209
-213
-216
-213
-210
-208
-205
-205
-205
-205
-208
-208
-208
-212
-215
-216
-214
-212
-213
-209
-208
-211
-211
-212
-212
-220
-223
-226
-230
-231
-225
-215
-208
-204
-207
-212
-218
-223
-222
-223
-219
-221
-223
-225
-225
-219
-217
-215
-214
-214
-218
-222
-222
-225
-229
-226
-221
-220
-219
-220
-220
-220
-215
-215
-212
-213
-213
-214
-214
-212
-212
-203
-205
-203
-197
-194
-191
-191
-189
-189
-189
-193
-195
-199
-202
-202
-205
-202
-198
-192
-188
-187
-188
-194
-204
-212
-218
-222
-222
-226
-231
-232
-233
-237
-239
-238
-240
-238
-239
-240
-236
-235
-237
-242
-245
-249
-249
-248
-238
-236
-233
-241
-240
-245
-244
-246
-247
-245
-241
-237
-231
-230
-236
-242
-249
-257
-265
-266
-262
-248
-225
-192
-163
-137
-124
-112
-113
-117
-116
-110
-86
-54
-20
8
10
-8
-69
-153
-236
-312
-369
-406
-433
-443
-449
-448
-448
-442
-443
-441
-443
-446
-452
-452
-447
-438
-418
-391
-363
-337
-315
-302
-286
-279
-277
-277
-275
-276
-270
-263
-258
-253
-253
-254
-258
-261
-260
-265
-269
-276
-273
-275
-267
-264
-261
-261
-269
-272
-272
-277
-278
-277
-276
-273
-276
-282
-286
-288
-289
-291
-293
-296
-300
-305
-305
-308
-305
-300
-303
-300
-299
-299
-307
-308
-310
-309
-307
-304
-299
-298
-299
-301
-300
-302
-301
-303
-304
-301
-295
-285
-275
-268
-263
-263
-266
-272
-279
-277
-271
-263
-251
-244
-241
-235
-234
-235
-232
-233
-232
-235
-237
-241
-243
-242
-241
-238
-235
-237
-237
-235
-236
-237
-237
-240
-239
-235
-233
-230
-232
-229
-231
-235
-232
-237
-240
-242
-235
-233
-237
-235
-233
-235
-241
-247
-252
-249
-249
-248
-241
-238
-235
-236
-238
-244
-247
-250
-248
-247
-246
-241
-241
-236
-240
-238
-237
-233
-230
-230
-236
-240
-248
-251
-251
-246
-245
-241
-235
-239
-237
-233
-234
-233
-236
-238
-240
-238
-239
-239
-236
-237
-237
-235
-234
-232
-235
-237
-236
-237
-239
-234
-235
-230
-230
-231
-232
-232
-232
-234
-232
-227
-226
-222
-225
-227
-232
-235
-236
-232
-229
-223
-219
-217
-215
-210
-211
-211
-208
-207
-203
-196
-196
-192
-191
-193
-193
-199
-206
-205
-207
-210
-203
-194
-188
-188
-190
-193
-198
-201
-209
-219
-224
-223
-227
-229
-232
-239
-238
-241
-240
-238
-237
-235
-232
-236
-236
-239
-243
-243
-239
-236
-230
-228
-229
-229
-237
-241
-252
-253
-254
-249
-245
-241
-234
-232
-232
-235
-238
-243
-247
-245
-240
-225
-200
-168
-134
-104
-92
-91
-102
-103
-95
-64
-28
5
23
8
-44
-124
-210
-289
-347
-380
-395
-403
-414
-424
-433
-444
-451
-452
-451
-451
-453
-457
-458
-455
-446
-435
-419
-401
-378
-347
-325
-303
-283
-273
-271
-268
-264
-257
-250
-245
-241
-240
-237
-242
-248
-254
-256
-254
-256
-247
-249
-249
-247
-246
-250
-250
-253
-254
-255
-256
-255
-257
-257
-261
-260
-264
-265
-269
-269
-270
-273
-275
-280
-284
-287
-290
-289
-286
-287
-287
-286
-286
-287
-289
-292
-294
-290
-287
-286
-282
-284
-289
-290
-289
-288
-284
-283
-278
-271
-267
-261
-258
-257
-256
-255
-256
-252
-244
-242
-241
-237
-234
-230
-224
-222
-220
-221
-226
-226
-223
-222
-221
-218
-213
-207
-203
-208
-213
-213
-221
-222
-220
-220
-216
-212
-208
-206
-206
-208
-213
-221
-223
-223
-223
-223
-221
-215
-215
-215
-212
-215
-219
-225
-232
-237
-236
-232
-228
-223
-221
-220
-221
-222
-222
-222
-223
-222
-223
-226
-227
-226
-226
-222
-221
-221
-217
-216
-218
-219
-221
-223
-224
-224
-224
-219
-218
-223
-222
-222
-219
-220
-219
-219
-221
-221
-221
-216
-211
-210
-215
-219
-227
-227
-226
-225
-226
-219
-215
-212
-211
-210
-211
-215
-215
-216
-214
-215
-214
-208
-208
-203
-200
-202
-200
-201
-196
-195
-188
-185
-177
-172
-173
-179
-184
-189
-193
-194
-198
-198
-199
-195
-189
-184
-177
-172
-175
-184
-192
-196
-200
-206
-208
-210
-215
-216
-217
-215
-213
-211
-213
-218
-225
-232
-237
-240
-235
-230
-225
-222
-221
-226
-226
-226
-227
-228
-228
-230
-233
-232
-231
-229
-219
-219
-216
-217
-222
-225
-230
-236
-234
-234
-224
-209
-186
-154
-122
-90
-70
-63
-67
-77
-77
-67
-45
-13
21
37
36
1
-69
-153
-241
-315
-367
-395
-410
-418
-422
-429
-436
-438
-443
-441
-435
-432
-429
-423
-417
-411
-405
-392
-371
-343
-313
-290
-271
-260
-250
-246
-247
-246
-245
-248
-248
-249
-246
-244
-242
-241
-242
-234
-233
-234
-235
-238
-240
-242
-244
-245
-244
-245
-245
-243
-246
-242
-245
-254
-255
-257
-260
-261
-263
-267
-272
-276
-276
-273
-271
-266
-269
-272
-275
-277
-283
-289
-290
-287
-283
-282
-278
-277
-272
-276
-279
-281
-283
-288
-284
-280
-276
-270
-261
-259
-259
-257
-256
-257
-255
-251
-246
-241
-238
-230
-227
-222
-218
-214
-214
-216
-218
-220
-221
-214
-213
-211
-206
-204
-208
-209
-213
-214
-213
-211
-207
-205
-205
-205
-205
-208
-210
-211
-207
-206
-207
-211
-211
-213
-211
-214
-210
-211
-210
-209
-214
-213
-216
-216
-213
-209
-211
-209
-210
-207
-209
-214
-213
-216
-215
-215
-211
-210
-207
-205
-201
-200
-199
-198
-198
-201
-205
-209
-211
-211
-210
-206
-202
-199
-196
-197
-203
-208
-212
-212
-211
-207
-203
-199
-196
-193
-198
-197
-198
-199
-202
-201
-200
-197
-195
-190
-191
-192
-192
-195
-193
-192
-195
-190
-189
-186
-180
-179
-174
-173
-168
-169
-168
-172
-169
-167
-165
-159
-157
-162
-167
-171
-172
-174
-175
-179
-179
-179
-177
-169
-166
-159
-153
-150
-157
-159
-166
-174
-185
-192
-188
-189
-182
-180
-178
-183
-187
-192
-203
-207
-211
-214
-210
-203
-201
-200
-197
-200
-200
-206
-206
-207
-211
-212
-213
-213
-207
-205
-201
-199
-199
-200
-201
-206
-207
-208
-211
-210
-212
-211
-211
-210
-206
-190
-169
-145
-123
-101
-88
-83
-83
-84
-79
-54
-26
9
37
44
22
-35
-110
-189
-253
-301
-331
-344
-355
-365
-375
-383
-390
-393
-392
-391
-385
-386
-385
-383
-380
-376
-361
-341
-315
-292
-276
-261
-249
-241
-230
-228
-223
-221
-219
-215
-215
-212
-215
-218
-220
-220
-221
-222
-221
-218
-219
-217
-219
-221
-222
-222
-225
-222
-223
-220
-225
-228
-233
-236
-237
-238
-241
-238
-239
-242
-245
-247
-244
-250
-251
-251
-252
-254
-258
-261
-263
-263
-258
-258
-262
-260
-265
-272
-267
-272
-269
-266
-262
-259
-253
-251
-246
-243
-248
-248
-246
-244
-240
-235
-227
-223
-217
-215
-216
-214
-213
-208
-205
-203
-200
-198
-198
-197
-193
-192
-189
-186
-186
-189
-192
-192
-197
-197
-192
-189
-180
-180
-182
-188
-191
-198
-196
-197
-196
-198
-193
-192
-189
-189
-187
-186
-186
-187
-193
-194
-194
-194
-197
-195
-193
-193
-193
-194
-194
-195
-193
-196
-190
-190
-187
-189
-185
-185
-185
-187
-187
-192
-192
-192
-196
-192
-191
-190
-186
-188
-191
-188
-187
-192
-189
-190
-185
-177
-174
-174
-170
-170
-168
-169
-171
-169
-171
-171
-166
-168
-165
-163
-158
-158
-157
-157
-155
-155
-160
-157
-154
-151
-146
-142
-143
-138
-138
-141
-139
-140
-140
-135
-131
-126
-121
-116
-112
-107
-109
-110
-121
-126
-132
-137
-139
-138
-134
-130
-121
-114
-108
-108
-114
-123
-131
-140
-142
-147
-145
-144
-142
-144
-144
-144
-153
-155
-161
-162
-162
-157
-156
-153
-150
-149
-148
-149
-148
-148
-150
-148
-150
-148
-146
-143
-144
-147
-148
-147
-148
-149
-152
-149
-150
-152
-153
-156
-152
-142
-125
-99
-73
-49
-29
-23
-20
-19
-7
15
48
83
108
113
89
35
-43
-126
-200
-251
-276
-292
-301
-313
-328
-339
-348
-355
-357
-361
-360
-358
-355
-355
-347
-341
-327
-314
-299
-272
-251
-229
-209
-194
-181
-176
-173
-174
-174
-172
-173
-170
-167
-168
-166
-168
-164
-163
-162
-164
-164
-164
-168
-169
-173
-176
-173
-172
-170
-168
-172
-168
-174
-177
-181
-182
-186
-189
-189
-196
-195
-193
-197
-194
-197
-200
-203
-205
-205
-206
-207
-209
-208
-209
-212
-209
-208
-209
-212
-213
-214
-212
-215
-214
-211
-205
-198
-195
-190
-187
-185
-184
-181
-180
-174
-167
-165
-162
-155
-153
-151
-149
-149
-148
-146
-146
-145
-143
-139
-137
-135
-133
-134
-134
-134
-134
-138
-138
-136
-133
-132
-131
-129
-128
-128
-129
-130
-135
-138
-142
-138
-135
-132
-130
-129
-130
-132
-139
-138
-141
-142
-145
-149
-147
-144
-144
-145
-140
-141
-140
-143
-143
-147
-149
-146
-146
-142
-140
-138
-136
-134
-136
-138
-142
-148
-149
-147
-145
-141
-141
-137
-136
-135
-135
-138
-140
-142
-145
-141
-140
-139
-140
-139
-140
-141
-141
-142
-146
-144
-146
-145
-145
-141
-138
-135
-133
-136
-136
-138
-138
-139
-139
-138
-138
-132
-130
-126
-124
-124
-123
-123
-124
-126
-127
-127
-123
-117
-106
-100
-94
-97
-101
-107
-109
-117
-123
-127
-124
-115
-112
-105
-99
-101
-101
-103
-102
-105
-112
-118
-123
-131
-132
-136
-141
-141
-146
-149
-149
-155
-157
-160
-162
-156
-154
-153
-151
-153
-151
-150
-150
-148
-146
-150
-151
-150
-149
-148
-153
-154
-152
-155
-158
-160
-159
-156
-152
-150
-152
-152
-153
-146
-142
-128
-107
-83
-54
-27
-9
-2
-8
-10
-5
11
33
62
86
98
84
41
-32
-115
-194
-256
-292
-310
-322
-333
-340
-348
-352
-360
-365
-363
-365
-363
-362
-359
-354
-349
-337
-323
-298
-267
-238
-205
-182
-169
-164
-166
-171
-172
-173
-174
-172
-171
-166
-162
-161
-161
-160
-161
-159
-160
-162
-165
-169
-169
-165
-166
-168
-169
-173
-177
-178
-177
-179
-184
-185
-187
-191
-190
-189
-192
-192
-195
-197
-200
-206
-209
-209
-210
-216
-211
-212
-211
-209
-215
-212
-214
-216
-218
-216
-217
-216
-216
-213
-212
-207
-207
-203
-205
-205
-199
-194
-191
-190
-189
-181
-181
-174
-171
-167
-163
-162
-166
-163
-165
-161
-161
-159
-157
-155
-154
-152
-153
-150
-153
-152
-152
-147
-147
-147
-146
-145
-146
-145
-147
-150
-150
-156
-152
-150
-152
-148
-146
-141
-143
-144
-150
-154
-157
-157
-156
-155
-152
-149
-147
-146
-148
-149
-155
-158
-161
-164
-161
-157
-155
-153
-160
-159
-159
-159
-160
-159
-161
-161
-159
-160
-160
-157
-154
-152
-153
-153
-154
-158
-159
-158
-156
-150
-151
-147
-149
-146
-146
-147
-151
-149
-154
-156
-150
-150
-147
-147
-147
-145
-145
-147
-146
-144
-146
-143
-136
-135
-131
-126
-126
-125
-128
-123
-124
-121
-126
-122
-124
-125
-125
-126
-128
-126
-123
-116
-114
-114
-122
-128
-135
-139
-140
-142
-142
-141
-144
-147
-153
-161
-165
-168
-172
-173
-169
-166
-160
-157
-159
-159
-162
-168
-174
-175
-181
-182
-181
-176
-168
-165
-159
-158
-161
-164
-167
-167
-168
-164
-162
-163
-169
-177
-181
-180
-166
-142
-118
-90
-64
-54
-54
-58
-58
-47
-16
20
64
91
92
59
-4
-86
-167
-234
-273
-298
-314
-326
-341
-355
-366
-376
-380
-379
-372
-366
-361
-358
-355
-348
-338
-323
-308
-287
-268
-235
-210
-192
-185
-182
-180
-179
-177
-175
-174
-171
-176
-176
-178
-174
-174
-173
-172
-174
-183
-184
-182
-184
-178
-176
-176
-174
-175
-176
-178
-183
-190
-195
-198
-199
-201
-200
-203
-206
-206
-203
-202
-202
-205
-212
-215
-219
-222
-222
-221
-216
-213
-209
-213
-215
-221
-225
-232
-231
-230
-224
-222
-221
-221
-220
-219
-212
-210
-204
-203
-200
-205
-206
-207
-198
-190
-181
-175
-173
-174
-174
-174
-176
-179
-178
-177
-171
-169
-162
-159
-152
-153
-156
-155
-158
-158
-162
-159
-157
-151
-147
-149
-149
-155
-159
-161
-165
-164
-164
-162
-159
-158
-162
-157
-154
-152
-156
-163
-164
-168
-168
-172
-170
-169
-168
-168
-171
-172
-173
-174
-176
-176
-177
-173
-170
-165
-165
-162
-164
-166
-168
-171
-176
-173
-173
-174
-165
-163
-161
-162
-167
-170
-173
-174
-173
-169
-168
-166
-164
-161
-156
-155
-154
-158
-164
-166
-172
-172
-169
-168
-162
-161
-160
-158
-160
-159
-158
-155
-155
-151
-150
-145
-140
-133
-134
-135
-133
-134
-132
-131
-129
-127
-124
-126
-128
-131
-139
-147
-147
-148
-144
-140
-138
-136
-137
-135
-138
-141
-143
-150
-155
-158
-159
-164
-168
-176
-177
-180
-178
-181
-180
-181
-179
-176
-179
-178
-179
-180
-180
-181
-183
-186
-186
-187
-185
-183
-181
-181
-185
-186
-187
-184
-180
-173
-174
-180
-185
-195
-201
-203
-198
-191
-173
-152
-125
-100
-82
-73
-74
-81
-83
-67
-39
0
43
75
84
61
1
-87
-179
-258
-310
-338
-359
-371
-378
-386
-395
-399
-398
-399
-396
-393
-391
-394
-394
-391
-381
-365
-338
-309
-276
-254
-232
-218
-211
-207
-205
-205
-205
-201
-199
-196
-193
-188
-190
-195
-195
-196
-198
-202
-203
-196
-194
-193
-193
-192
-193
-199
-203
-206
-211
-213
-210
-213
-214
-210
-212
-213
-216
-219
-222
-226
-229
-232
-232
-237
-236
-237
-238
-234
-234
-238
-241
-244
-247
-247
-250
-250
-245
-243
-239
-239
-239
-239
-238
-238
-235
-236
-234
-232
-225
-222
-221
-214
-213
-213
-210
-208
-202
-197
-197
-193
-191
-189
-187
-187
-183
-181
-184
-183
-182
-185
-183
-180
-179
-178
-172
-171
-175
-177
-181
-184
-185
-185
-183
-180
-179
-177
-183
-183
-183
-182
-181
-184
-186
-191
-189
-187
-186
-184
-185
-184
-182
-182
-188
-189
-188
-190
-189
-187
-188
-187
-182
-184
-183
-187
-186
-192
-193
-194
-195
-192
-186
-186
-187
-183
-187
-183
-188
-184
-184
-185
-187
-185
-182
-181
-176
-169
-166
-165
-167
-170
-176
-181
-180
-181
-177
-175
-175
-176
-178
-183
-190
-194
-195
-196
-193
-192
-190
-189
-186
-186
-188
-189
-190
-188
-190
-188
-188
-183
-179
-177
-171
-164
-157
-152
-152
-150
-151
-155
-159
-160
-164
-166
-165
-163
-161
-160
-156
-157
-156
-160
-161
-167
-168
-174
-182
-187
-192
-191
-194
-196
-200
-202
-203
-204
-203
-200
-201
-200
-202
-200
-204
-206
-208
-207
-207
-204
-204
-203
-203
-205
-211
-208
-210
-208
-208
-208
-207
-204
-203
-203
-204
-205
-210
-214
-215
-215
-203
-185
-159
-130
-99
-74
-56
-59
-64
-65
-59
-37
-6
21
31
11
-50
-137
-231
-312
-372
-404
-420
-427
-429
-436
-438
-443
-443
-439
-438
-437
-436
-434
-429
-425
-410
-394
-372
-342
-312
-286
-263
-250
-239
-235
-236
-234
-235
-235
-230
-227
-222
-218
-216
-217
-218
-222
-224
-226
-226
-227
-228
-227
-225
-223
-222
-225
-226
-231
-232
-236
-241
-242
-248
-248
-242
-243
-242
-243
-246
-252
-256
-259
-265
-267
-266
-268
-269
-270
-263
-265
-267
-266
-266
-265
-268
-268
-269
-269
-269
-268
-262
-259
-258
-254
-257
-255
-258
-253
-249
-241
-235
-231
-227
-224
-222
-221
-219
-218
-219
-217
-218
-213
-210
-203
-203
-202
-202
-204
-204
-207
-204
-204
-202
-203
-202
-201
-198
-197
-200
-200
-198
-201
-201
-204
-205
-205
-203
-203
-200
-200
-203
-206
-210
-215
-212
-211
-208
-204
-204
-202
-205
-207
-209
-209
-212
-209
-208
-209
-208
-206
-206
-207
-205
-208
-206
-209
-210
-212
-216
-216
-213
-209
-208
-205
-203
-206
-207
-211
-212
-210
-209
-210
-212
-212
-211
-209
-205
-205
-205
-203
-202
-206
-209
-211
-212
-213
-211
-204
-205
-205
-203
-206
-207
-210
-209
-210
-210
-208
-203
-201
-195
-196
-196
-194
-196
-196
-195
-194
-194
-192
-183
-177
-172
-166
-165
-166
-175
-182
-188
-195
-199
-198
-188
-182
-176
-170
-167
-166
-173
-185
-191
-202
-208
-210
-210
-208
-207
-207
-209
-211
-215
-218
-219
-220
-223
-221
-222
-222
-221
-221
-221
-225
-222
-225
-221
-222
-222
-223
-222
-223
-218
-217
-219
-220
-220
-223
-224
-224
-227
-226
-225
-226
-222
-220
-208
-189
-162
-134
-103
-86
-83
-79
-81
-68
-42
-16
9
23
8
-38
-116
-210
-296
-344
-376
-385
-386
-390
-399
-408
-414
-416
-424
-440
-458
-462
-455
-439
-415
-396
-372
-346
-327
-311
-302
-286
-263
-248
-236
-234
-233
-239
-247
-249
-248
-245
-239
-238
-241
-254
-258
-254
-240
-232
-227
-229
-229
-234
-237
-238
-249
-253
-251
-243
-235
-233
-236
-252
-269
-281
-281
-278
-273
-267
-261
-258
-252
-253
-263
-276
-291
-300
-292
-285
-276
-274
-278
-293
-308
-318
-314
-300
-280
-268
-266
-275
-284
-284
-278
-266
-250
-238
-240
-246
-264
-274
-271
-266
-253
-243
-240
-240
-239
-231
-231
-233
-239
-250
-254
-261
-254
-245
-228
-216
-198
-187
-182
-182
-196
-219
-240
-244
-238
-224
-208
-199
-192
-199
-213
-228
-239
-242
-234
-221
-210
-205
-202
-207
-211
-220
-234
-245
-255
-248
-238
-230
-229
-238
-241
-238
-227
-222
-225
-226
-230
-238
-241
-244
-238
-229
-227
-231
-237
-244
-246
-242
-239
-235
-234
-231
-230
-233
-235
-241
-239
-236
-231
-230
-230
-232
-234
-231
-229
-223
-219
-218
-222
-234
-238
-236
-234
-227
-221
-218
-217
-224
-226
-227
-225
-221
-212
-209
-212
-215
-224
-226
-222
-218
-215
-212
-209
-204
-198
-195
-201
-204
-212
-219
-217
-217
-218
-217
-215
-211
-208
-205
-205
-204
-203
-211
-215
-224
-229
-232
-235
-236
-235
-237
-243
-251
-257
-259
-258
-255
-250
-249
-253
-258
-265
-268
-268
-260
-256
-254
-252
-256
-262
-269
-269
-266
-263
-261
-259
-260
-262
-267
-263
-262
-262
-261
-257
-257
-262
-265
-270
-273
-259
-246
-223
-195
-162
-136
-116
-111
-110
-112
-107
-91
-62
-34
-18
-21
-52
-104
-175
-251
-317
-371
-404
-421
-429
-437
-443
-452
-458
-465
-471
-474
-471
-471
-467
-471
-470
-468
-454
-434
-407
-377
-343
-322
-307
-303
-303
-309
-312
-313
-308
-305
-297
-296
-293
-292
-296
-297
-299
-301
-303
-302
-302
-295
-294
-293
-292
-290
-289
-286
-287
-292
-302
-315
-324
-325
-320
-312
-306
-306
-314
-318
-327
-332
-330
-332
-333
-331
-335
-335
-337
-340
-339
-340
-338
-338
-341
-345
-345
-341
-337
-330
-332
-335
-336
-335
-337
-336
-338
-337
-339
-339
-330
-320
-308
-304
-305
-313
-320
-324
-321
-314
-305
-296
-294
-291
-296
-295
-297
-297
-296
-291
-285
-278
-275
-275
-276
-280
-280
-283
-281
-274
-281
-281
-284
-285
-284
-281
-274
-269
-266
-269
-275
-281
-278
-279
-281
-280
-282
-288
-292
-293
-289
-277
-275
-272
-273
-273
-277
-283
-288
-289
-287
-282
-277
-279
-279
-282
-283
-284
-288
-286
-285
-278
-274
-273
-277
-277
-282
-283
-281
-279
-276
-278
-278
-277
-276
-276
-278
-281
-283
-285
-285
-287
-287
-284
-278
-273
-271
-272
-268
-268
-270
-271
-275
-279
-278
-283
-278
-273
-264
-258
-254
-250
-253
-259
-263
-260
-259
-260
-253
-246
-240
-239
-240
-237
-238
-241
-247
-248
-249
-247
-244
-243
-237
-232
-225
-224
-224
-231
-241
-252
-262
-267
-264
-257
-255
-255
-253
-261
-270
-277
-284
-287
-288
-280
-273
-268
-269
-271
-272
-275
-269
-263
-261
-264
-266
-268
-269
-271
-272
-268
-266
-265
-262
-259
-263
-268
-274
-279
-284
-284
-278
-262
-235
-202
-173
-150
-121
-107
-102
-108
-113
-110
-92
-64
-33
-4
-4
-33
-88
-168
-254
-327
-375
-398
-406
-410
-420
-434
-447
-460
-464
-463
-466
-467
-472
-471
-469
-464
-450
-434
-408
-390
-364
-338
-317
-303
-289
-284
-283
-285
-283
-276
-267
-257
-255
-258
-262
-265
-271
-268
-267
-266
-265
-269
-267
-264
-263
-262
-261
-263
-260
-267
-272
-278
-279
-276
-278
-283
-285
-287
-290
-291
-293
-294
-291
-292
-292
-297
-302
-303
-306
-304
-296
-292
-293
-290
-294
-299
-302
-304
-304
-300
-298
-298
-299
-296
-299
-292
-288
-286
-285
-277
-274
-273
-277
-276
-271
-267
-262
-251
-245
-248
-245
-245
-243
-240
-238
-235
-236
-235
-235
-233
-232
-228
-227
-232
-228
-226
-222
-221
-224
-226
-230
-230
-228
-225
-223
-224
-222
-223
-223
-222
-225
-227
-230
-229
-224
-226
-218
-215
-216
-220
-223
-231
-234
-235
-231
-231
-226
-229
-228
-225
-227
-230
-230
-230
-232
-231
-231
-231
-228
-228
-226
-222
-224
-224
-225
-226
-225
-229
-229
-227
-224
-221
-219
-216
-214
-217
-219
-222
-224
-223
-225
-222
-222
-219
-219
-219
-221
-224
-223
-223
-219
-217
-216
-213
-208
-206
-201
-196
-197
-198
-201
-196
-194
-191
-187
-184
-180
-181
-185
-187
-190
-194
-200
-203
-203
-197
-191
-185
-182
-179
-182
-188
-192
-200
-206
-212
-220
-221
-225
-228
-225
-229
-225
-226
-229
-231
-232
-235
-232
-232
-234
-231
-232
-231
-228
-229
-229
-230
-233
-233
-234
-234
-233
-234
-229
-228
-225
-223
-226
-230
-236
-241
-242
-241
-231
-216
-192
-166
-130
-103
-82
-77
-81
-83
-77
-58
-29
7
29
29
3
-68
-155
-244
-312
-360
-382
-398
-410
-416
-420
-426
-428
-431
-434
-433
-439
-436
-436
-433
-423
-406
-385
-358
-327
-297
-277
-259
-251
-253
-253
-252
-251
-249
-244
-238
-233
-232
-235
-239
-241
-246
-249
-249
-248
-246
-241
-242
-239
-238
-240
-245
-247
-251
-258
-256
-256
-259
-258
-257
-255
-258
-259
-261
-264
-266
-272
-277
-276
-279
-277
-278
-278
-279
-277
-280
-280
-284
-286
-290
-286
-284
-280
-280
-278
-280
-277
-275
-278
-277
-272
-272
-271
-268
-263
-259
-253
-246
-247
-246
-247
-244
-240
-237
-236
-230
-226
-223
-219
-216
-212
-211
-214
-214
-216
-216
-217
-215
-212
-212
-212
-208
-208
-210
-211
-213
-215
-217
-212
-212
-213
-211
-208
-207
-205
-204
-212
-213
-217
-216
-219
-215
-211
-211
-207
-209
-210
-208
-210
-215
-215
-217
-219
-216
-217
-212
-210
-211
-211
-211
-211
-212
-214
-218
-221
-217
-214
-214
-208
-211
-210
-209
-212
-208
-213
-213
-212
-210
-211
-210
-205
-206
-205
-205
-207
-209
-210
-212
-212
-209
-204
-202
-200
-197
-199
-197
-193
-194
-193
-192
-194
-191
-193
-186
-181
-177
-173
-169
-169
-172
-177
-180
-183
-186
-185
-185
-181
-178
-173
-168
-167
-170
-174
-182
-189
-196
-197
-202
-202
-201
-203
-208
-210
-213
-218
-223
-222
-226
-219
-217
-218
-214
-215
-219
-220
-222
-224
-224
-222
-222
-221
-217
-214
-214
-216
-214
-216
-214
-217
-219
-217
-217
-217
-216
-217
-220
-222
-221
-219
-213
-198
-174
-141
-115
-88
-69
-67
-70
-72
-63
-46
-20
17
47
61
50
9
-56
-132
-207
-264
-304
-328
-345
-357
-371
-383
-393
-400
-407
-406
-409
-412
-416
-415
-416
-413
-407
-401
-384
-360
-334
-309
-281
-264
-251
-243
-242
-243
-244
-246
-243
-237
-234
-228
-226
-228
-231
-233
-237
-237
-239
-239
-236
-235
-235
-234
-232
-235
-238
-235
-238
-239
-243
-243
-245
-249
-252
-251
-252
-252
-254
-259
-261
-267
-265
-267
-270
-268
-269
-268
-270
-273
-273
-273
-273
-277
-280
-280
-279
-279
-278
-277
-275
-274
-278
-276
-276
-276
-275
-270
-265
-262
-257
-253
-250
-251
-248
-244
-244
-242
-240
-239
-237
-230
-224
-221
-216
-212
-210
-212
-212
-211
-210
-209
-207
-206
-207
-207
-202
-204
-202
-201
-206
-204
-205
-204
-204
-203
-203
-203
-200
-199
-203
-204
-205
-206
-208
-209
-206
-205
-202
-202
-201
-203
-206
-207
-209
-211
-216
-217
-216
-214
-213
-208
-213
-212
-215
-212
-212
-215
-217
-214
-214
-211
-216
-211
-209
-210
-211
-210
-211
-210
-212
-212
-214
-213
-211
-207
-204
-206
-210
-210
-210
-210
-210
-211
-208
-207
-207
-204
-202
-199
-197
-196
-197
-196
-195
-195
-190
-187
-187
-184
-181
-182
-180
-177
-174
-172
-171
-167
-168
-167
-166
-169
-172
-175
-179
-181
-180
-177
-174
-168
-168
-164
-167
-173
-177
-187
-193
-196
-200
-203
-205
-207
-212
-212
-212
-213
-212
-214
-213
-214
-217
-220
-219
-219
-217
-214
-213
-211
-211
-212
-213
-214
-217
-218
-216
-217
-214
-214
-212
-210
-206
-210
-212
-220
-224
-223
-225
-221
-207
-182
-159
-131
-104
-85
-79
-77
-75
-70
-52
-17
22
64
90
91
57
-12
-96
-175
-243
-288
-313
-328
-339
-352
-362
-376
-384
-389
-395
-398
-398
-400
-402
-397
-391
-381
-363
-341
-315
-289
-265
-247
-233
-223
-219
-218
-216
-213
-209
-207
-201
-202
-202
-200
-197
-199
-202
-200
-200
-201
-204
-200
-200
-201
-208
-205
-210
-211
-216
-219
-216
-218
-218
-221
-219
-224
-226
-232
-234
-235
-238
-239
-242
-238
-238
-237
-239
-239
-242
-242
-245
-246
-247
-250
-251
-248
-247
-243
-239
-240
-241
-242
-243
-243
-240
-237
-233
-230
-224
-220
-215
-212
-209
-204
-206
-203
-205
-203
-200
-193
-189
-187
-183
-182
-179
-178
-179
-181
-181
-179
-176
-175
-172
-169
-170
-169
-169
-172
-172
-174
-176
-175
-173
-172
-173
-171
-168
-168
-170
-171
-176
-175
-177
-179
-176
-178
-177
-176
-176
-176
-175
-178
-177
-181
-181
-181
-181
-182
-179
-177
-173
-177
-175
-179
-178
-181
-181
-181
-179
-180
-174
-173
-171
-170
-171
-173
-176
-177
-179
-179
-181
-180
-179
-177
-176
-175
-176
-177
-175
-178
-174
-172
-175
-174
-175
-168
-167
-167
-160
-160
-161
-158
-159
-159
-155
-153
-152
-149
-145
-152
-147
-143
-142
-140
-138
-140
-143
-144
-147
-145
-146
-148
-144
-142
-139
-134
-133
-137
-141
-147
-152
-158
-162
-163
-166
-171
-172
-181
-184
-184
-181
-181
-182
-181
-184
-185
-184
-182
-186
-182
-186
-187
-186
-186
-185
-187
-186
-187
-187
-190
-188
-189
-186
-190
-195
-193
-191
-187
-186
-186
-188
-188
-191
-190
-186
-170
-153
-121
-89
-61
-40
-31
-34
-40
-43
-36
-19
13
49
76
81
58
-5
-92
-179
-256
-305
-335
-351
-362
-371
-378
-386
-390
-391
-396
-398
-402
-406
-406
-406
-401
-392
-376
-355
-329
-301
-274
-251
-234
-219
-212
-210
-212
-212
-210
-208
-203
-200
-200
-200
-199
-200
-201
-202
-205
-206
-204
-200
-200
-200
-201
-203
-206
-213
-213
-215
-220
-220
-222
-226
-223
-222
-225
-228
-230
-234
-237
-237
-237
-240
-241
-241
-245
-242
-243
-247
-246
-250
-250
-255
-254
-252
-251
-249
-248
-242
-245
-242
-244
-242
-244
-240
-241
-239
-235
-229
-227
-215
-213
-212
-211
-208
-210
-207
-205
-205
-200
-194
-192
-185
-184
-184
-184
-184
-184
-185
-183
-186
-184
-181
-176
-172
-174
-174
-175
-174
-174
-177
-178
-178
-175
-171
-168
-167
-171
-171
-177
-177
-179
-177
-177
-176
-174
-174
-173
-170
-175
-175
-178
-177
-182
-183
-183
-185
-179
-175
-175
-173
-173
-175
-178
-177
-181
-179
-182
-182
-180
-178
-175
-173
-173
-173
-174
-176
-175
-178
-181
-179
-176
-173
-172
-171
-172
-174
-177
-177
-178
-174
-176
-173
-171
-168
-169
-169
-169
-170
-167
-168
-167
-167
-165
-165
-159
-155
-152
-148
-150
-149
-149
-150
-149
-144
-140
-135
-133
-135
-135
-136
-143
-149
-154
-155
-149
-146
-144
-136
-132
-131
-133
-137
-145
-151
-158
-164
-164
-167
-172
-174
-174
-177
-180
-180
-176
-177
-175
-177
-178
-183
-188
-188
-186
-185
-184
-181
-182
-180
-178
-180
-185
-187
-187
-186
-186
-183
-184
-181
-180
-183
-186
-190
-192
-194
-189
-175
-152
-124
-89
-58
-43
-37
-38
-47
-43
-30
-3
36
71
97
97
68
3
-82
-164
-227
-272
-297
-314
-324
-337
-349
-360
-370
-377
-383
-387
-392
-391
-395
-394
-388
-375
-359
-340
-308
-283
-253
-231
-218
-211
-204
-208
-206
-203
-200
-195
-193
-192
-195
-195
-195
-195
-195
-197
-199
-197
-194
-195
-192
-195
-196
-198
-200
-206
-209
-208
-212
-210
-208
-211
-210
-214
-221
-225
-230
-231
-232
-232
-235
-234
-232
-232
-231
-231
-239
-237
-242
-244
-246
-250
-245
-244
-243
-242
-237
-240
-243
-240
-241
-242
-238
-239
-236
-230
-226
-223
-219
-219
-219
-212
-208
-207
-204
-203
-202
-193
-191
-185
-182
-181
-180
-180
-180
-180
-179
-178
-175
-172
-169
-166
-164
-166
-165
-167
-168
-169
-170
-171
-169
-168
-171
-169
-168
-168
-166
-163
-167
-168
-166
-170
-173
-170
-169
-167
-167
-167
-164
-167
-172
-173
-178
-179
-177
-176
-173
-171
-169
-169
-173
-176
-180
-178
-180
-182
-181
-177
-178
-176
-172
-168
-168
-172
-172
-179
-179
-181
-178
-177
-174
-173
-174
-171
-171
-170
-172
-171
-170
-174
-174
-176
-173
-173
-169
-173
-170
-169
-168
-173
-168
-162
-162
-159
-157
-153
-151
-150
-149
-148
-148
-149
-145
-143
-140
-134
-128
-129
-127
-126
-133
-138
-143
-149
-149
-149
-148
-143
-136
-131
-128
-127
-132
-137
-149
-156
-167
-168
-169
-167
-169
-167
-169
-170
-172
-177
-179
-181
-182
-183
-183
-182
-179
-178
-176
-178
-177
-179
-183
-185
-185
-186
-187
-183
-182
-180
-181
-180
-179
-181
-182
-185
-183
-184
-185
-186
-188
-191
-192
-197
-191
-181
-164
-141
-114
-93
-71
-59
-54
-59
-57
-44
-17
22
64
92
104
87
30
-53
-138
-213
-266
-297
-319
-336
-349
-367
-380
-391
-400
-399
-401
-399
-398
-398
-396
-394
-382
-369
-349
-320
-289
-261
-239
-225
-212
-206
-205
-207
-202
-201
-198
-198
-201
-196
-195
-190
-188
-189
-191
-191
-194
-192
-198
-200
-199
-200
-202
-201
-202
-204
-203
-205
-210
-213
-217
-222
-222
-224
-223
-221
-222
-224
-225
-226
-234
-238
-240
-241
-237
-235
-235
-238
-236
-239
-238
-242
-241
-242
-243
-239
-236
-233
-232
-231
-229
-226
-223
-222
-224
-226
-219
-217
-214
-207
-200
-196
-192
-188
-189
-190
-186
-184
-184
-182
-181
-180
-175
-170
-168
-165
-163
-164
-167
-168
-167
-165
-165
-165
-162
-161
-160
-160
-159
-164
-164
-166
-166
-167
-167
-168
-166
-166
-166
-165
-165
-169
-171
-171
-172
-172
-172
-174
-172
-172
-172
-171
-169
-171
-170
-172
-176
-175
-175
-172
-169
-171
-165
-166
-168
-171
-173
-175
-177
-179
-178
-179
-174
-169
-166
-168
-169
-168
-171
-170
-172
-170
-173
-170
-168
-167
-171
-173
-169
-166
-168
-168
-167
-167
-166
-165
-164
-161
-161
-158
-153
-152
-147
-148
-151
-149
-146
-143
-141
-133
-126
-124
-124
-127
-131
-135
-143
-147
-147
-148
-145
-137
-131
-125
-121
-122
-132
-136
-147
-152
-156
-161
-161
-161
-159
-164
-168
-172
-175
-179
-179
-179
-180
-179
-177
-176
-174
-177
-176
-178
-179
-183
-182
-180
-181
-179
-180
-177
-173
-174
-177
-180
-178
-183
-182
-182
-186
-182
-184
-183
-182
-178
-169
-151
-130
-96
-69
-47
-36
-30
-37
-34
-22
1
35
72
102
110
93
38
-44
-134
-215
-275
-320
-344
-357
-372
-382
-393
-404
-412
-415
-415
-415
-414
-414
-411
-405
-394
-383
-366
-340
-311
-280
-254
-235
-219
-208
-205
-202
-202
-200
-200
-201
-200
-200
-199
-195
-192
-188
-186
-190
-190
-191
-195
-197
-201
-199
-200
-199
-200
-196
-199
-205
-207
-212
-215
-218
-220
-223
-222
-224
-221
-221
-218
-222
-225
-233
-236
-239
-241
-244
-241
-240
-238
-236
-235
-235
-239
-244
-242
-245
-246
-246
-245
-240
-235
-230
-229
-230
-231
-231
-227
-227
-221
-216
-211
-201
-197
-192
-191
-187
-187
-187
-182
-181
-182
-180
-178
-174
-171
-171
-172
-166
-164
-166
-165
-163
-163
-168
-166
-165
-163
-160
-157
-159
-161
-161
-166
-165
-167
-168
-166
-165
-164
-161
-162
-164
-165
-166
-165
-168
-170
-172
-171
-168
-168
-170
-169
-169
-170
-173
-173
-175
-174
-174
-176
-173
-173
-170
-168
-171
-170
-171
-174
-175
-174
-173
-171
-170
-169
-167
-167
-168
-172
-170
-171
-171
-172
-168
-169
-169
-168
-164
-163
-163
-164
-166
-169
-167
-168
-167
-167
-168
-166
-164
-161
-162
-164
-165
-165
-167
-168
-163
-161
-155
-155
-152
-149
-148
-146
-145
-149
-149
-147
-143
-142
-135
-130
-124
-124
-122
-126
-131
-138
-145
-151
-151
-151
-145
-137
-127
-121
-118
-121
-125
-135
-142
-152
-155
-156
-158
-160
-159
-162
-167
-169
-175
-175
-174
-174
-177
-175
-175
-170
-170
-172
-173
-173
-175
-180
-183
-184
-182
-178
-176
-177
-174
-173
-173
-175
-173
-178
-175
-177
-178
-177
-177
-183
-184
-183
-184
-181
-175
-159
-134
-108
-78
-48
-25
-18
-18
-22
-18
-1
31
69
100
113
95
40
-36
-127
-207
-266
-305
-333
-351
-369
-380
-390
-395
-403
-401
-407
-404
-404
-402
-398
-386
-370
-351
-324
-292
-262
-238
-221
-211
-200
-200
-197
-199
-199
-197
-194
-191
-186
-183
-183
-183
-183
-185
-191
-190
-191
-195
-196
-198
-196
-196
-200
-197
-200
-197
-199
-204
-206
-211
-212
-217
-214
-217
-218
-218
-217
-223
-225
-228
-231
-233
-236
-234
-235
-237
-241
-233
-235
-237
-241
-240
-240
-241
-244
-242
-239
-236
-236
-234
-229
-233
-229
-230
-225
-226
-229
-223
-215
-208
-202
-201
-196
-194
-190
-188
-186
-187
-183
-183
-178
-176
-170
-165
-165
-164
-161
-161
-165
-165
-168
-165
-165
-163
-156
-155
-155
-154
-154
-158
-158
-160
-162
-161
-160
-161
-157
-156
-156
-159
-160
-159
-164
-163
-163
-162
-164
-162
-165
-167
-162
-166
-166
-171
-172
-172
-171
-172
-167
-169
-163
-164
-162
-166
-166
-165
-167
-169
-170
-170
-169
-164
-161
-160
-160
-160
-162
-163
-169
-167
-169
-167
-168
-165
-162
-161
-165
-164
-163
-165
-163
-164
-170
-169
-167
-166
-161
-161
-160
-158
-158
-161
-160
-160
-156
-156
-154
-146
-144
-141
-139
-138
-138
-137
-140
-139
-131
-128
-124
-119
-116
-122
-120
-126
-131
-137
-140
-145
-146
-144
-135
-127
-119
-113
-118
-124
-131
-144
-148
-154
-162
-162
-161
-160
-164
-164
-164
-169
-171
-171
-172
-173
-178
-178
-177
-176
-174
-173
-176
-173
-176
-178
-182
-180
-182
-179
-179
-177
-176
-175
-174
-173
-175
-177
-178
-180
-181
-181
-183
-180
-179
-181
-185
-185
-185
-176
-162
-134
-106
-76
-51
-36
-36
-33
-30
-13
16
59
96
119
112
69
-6
-96
-183
-251
-289
-316
-332
-351
-366
-378
-395
-405
-409
-408
-406
-405
-406
-403
-406
-401
-399
-392
-380
-358
-325
-294
-265
-241
-221
-207
-201
-200
-199
-194
-193
-192
-192
-189
-181
-185
-183
-182
-182
-185
-184
-189
-190
-191
-193
-186
-185
-186
-183
-186
-190
-195
-196
-200
-204
-207
-207
-206
-207
-206
-205
-210
-212
-214
-219
-223
-224
-227
-229
-227
-228
-230
-232
-232
-231
-232
-235
-235
-238
-239
-239
-236
-233
-231
-228
-226
-228
-226
-225
-226
-226
-220
-218
-212
-207
-204
-200
-196
-194
-195
-192
-191
-186
-183
-179
-174
-171
-168
-170
-166
-166
-165
-167
-165
-165
-161
-158
-160
-155
-153
-152
-153
-154
-157
-160
-161
-162
-161
-160
-157
-158
-159
-158
-157
-156
-160
-165
-163
-168
-166
-167
-165
-166
-163
-161
-162
-165
-168
-170
-175
-177
-172
-169
-168
-168
-166
-163
-162
-164
-164
-170
-170
-170
-171
-169
-170
-168
-161
-164
-163
-166
-166
-167
-170
-169
-169
-169
-166
-167
-168
-166
-168
-168
-166
-167
-168
-168
-170
-164
-164
-162
-162
-160
-159
-159
-162
-162
-164
-169
-166
-165
-163
-159
-157
-151
-151
-148
-150
-146
-146
-147
-144
-144
-140
-135
-128
-121
-118
-118
-122
-127
-132
-138
-143
-144
-144
-140
-135
-130
-126
-121
-122
-133
-140
-149
-158
-164
-164
-164
-164
-164
-167
-169
-174
-178
-180
-184
-184
-184
-185
-186
-183
-182
-182
-182
-183
-188
-185
-187
-187
-187
-186
-181
-179
-177
-180
-182
-186
-186
-185
-186
-187
-191
-190
-185
-186
-186
-184
-179
-162
-138
-111
-80
-57
-45
-38
-39
-33
-13
22
64
100
118
102
47
-40
-143
-235
-300
-341
-365
-378
-387
-398
-412
-421
-428
-433
-431
-432
-433
-431
-426
-415
-404
-392
-373
-344
-316
-282
-256
-231
-219
-209
-206
-203
-203
-200
-202
-201
-200
-199
-200
-197
-197
-194
-198
-198
-198
-203
-200
-200
-201
-206
-205
-205
-206
-203
-207
-206
-211
-210
-215
-217
-220
-224
-225
-227
-228
-229
-228
-225
-227
-230
-235
-240
-243
-245
-246
-242
-244
-246
-246
-247
-249
-247
-250
-251
-253
-254
-249
-246
-243
-240
-234
-233
-231
-229
-228
-228
-227
-224
-218
-213
-209
-204
-196
-192
-190
-188
-189
-190
-186
-183
-180
-179
-173
-173
-172
-169
-169
-172
-176
-176
-175
-172
-171
-167
-166
-166
-166
-165
-167
-170
-173
-175
-179
-180
-178
-176
-174
-173
-169
-171
-173
-174
-175
-177
-182
-182
-183
-182
-178
-180
-178
-180
-179
-180
-182
-187
-185
-186
-183
-186
-184
-185
-182
-178
-178
-179
-179
-180
-181
-180
-181
-178
-178
-176
-175
-176
-177
-177
-177
-180
-179
-177
-180
-176
-180
-180
-175
-176
-175
-180
-178
-179
-180
-176
-175
-175
-175
-173
-168
-168
-170
-171
-174
-177
-180
-183
-181
-175
-177
-172
-171
-171
-170
-172
-170
-169
-171
-168
-165
-163
-162
-152
-150
-149
-149
-152
-150
-151
-151
-146
-138
-131
-129
-128
-130
-136
-142
-148
-153
-155
-151
-144
-138
-134
-128
-128
-130
-138
-148
-156
-166
-171
-178
-176
-177
-177
-179
-178
-181
-180
-183
-185
-187
-189
-191
-188
-185
-188
-186
-185
-185
-188
-189
-192
-189
-196
-193
-192
-190
-189
-186
-184
-184
-183
-185
-186
-187
-187
-188
-195
-195
-195
-195
-192
-179
-161
-135
-104
-72
-43
-27
-23
-26
-26
-19
3
35
75
106
117
83
9
-88
-192
-274
-333
-366
-383
-395
-402
-410
-416
-421
-428
-433
-436
-435
-432
-428
-415
-400
-382
-357
-329
-305
-281
-261
-243
-230
-226
-221
-220
-219
-215
-210
-211
-211
-211
-207
-210
-208
-207
-206
-208
-208
-211
-207
-209
-210
-215
-214
-216
-216
-220
-220
-219
-219
-222
-224
-232
-233
-238
-240
-241
-244
-242
-241
-241
-249
-244
-246
-250
-253
-256
-259
-263
-262
-260
-261
-261
-260
-259
-258
-260
-259
-258
-259
-257
-259
-250
-249
-247
-241
-238
-236
-230
-228
-228
-223
-218
-217
-209
-206
-201
-197
-195
-193
-193
-192
-190
-189
-190
-188
-184
-185
-180
-176
-177
-175
-175
-176
-177
-180
-178
-177
-178
-176
-172
-172
-169
-171
-172
-172
-173
-177
-181
-179
-180
-177
-176
-174
-175
-175
-177
-176
-177
-180
-183
-183
-185
-182
-182
-178
-178
-180
-180
-183
-183
-183
-183
-183
-182
-180
-182
-178
-181
-181
-183
-182
-179
-182
-183
-181
-177
-179
-176
-176
-178
-180
-177
-182
-185
-182
-183
-184
-179
-177
-175
-170
-170
-172
-173
-175
-176
-176
-178
-176
-175
-175
-171
-170
-170
-172
-170
-176
-177
-175
-173
-172
-165
-160
-158
-156
-152
-151
-149
-153
-151
-153
-151
-144
-136
-133
-127
-124
-124
-130
-137
-141
-147
-148
-151
-149
-143
-133
-126
-123
-123
-129
-138
-148
-157
-164
-172
-173
-172
-172
-173
-172
-174
-180
-180
-183
-186
-187
-185
-187
-184
-187
-184
-181
-184
-179
-182
-185
-187
-185
-189
-190
-190
-190
-187
-185
-183
-183
-183
-180
-182
-189
-189
-188
-188
-190
-190
-190
-191
-189
-182
-164
-142
-109
-80
-53
-35
-31
-35
-32
-21
6
48
90
119
120
80
6
-89
-180
-255
-301
-331
-351
-363
-383
-396
-406
-421
-429
-431
-427
-429
-422
-424
-422
-421
-414
-406
-396
-373
-346
-317
-286
-259
-237
-228
-217
-213
-211
-208
-208
-205
-201
-197
-194
-190
-187
-190
-192
-193
-198
-201
-199
-200
-200
-197
-198
-197
-196
-195
-200
-204
-204
-209
-210
-214
-212
-212
-213
-213
-213
-220
-222
-222
-226
-234
-235
-241
-241
-241
-239
-240
-239
-241
-244
-244
-245
-245
-249
-248
-251
-247
-245
-244
-241
-243
-240
-242
-241
-242
-237
-235
-232
-228
-223
-216
-210
-208
-207
-202
-197
-194
-192
-191
-190
-184
-178
-174
-170
-171
-171
-166
-167
-168
-168
-170
-168
-166
-163
-161
-158
-153
-160
-161
-165
-168
-165
-167
-166
-163
-164
-161
-159
-160
-160
-163
-166
-169
-167
-172
-172
-166
-167
-169
-166
-167
-169
-168
-171
-172
-173
-173
-175
-173
-170
-172
-169
-170
-171
-172
-173
-175
-174
-173
-175
-171
-170
-171
-167
-167
-166
-168
-171
-171
-172
-172
-173
-169
-170
-169
-166
-167
-167
-168
-170
-171
-170
-170
-171
-170
-168
-165
-162
-167
-165
-166
-170
-171
-169
-170
-169
-165
-163
-160
-156
-154
-152
-150
-150
-151
-151
-149
-148
-143
-139
-137
-133
-130
-124
-118
-117
-113
-116
-123
-129
-133
-137
-136
-135
-129
-126
-123
-119
-120
-123
-132
-135
-142
-149
-155
-157
-157
-159
-162
-165
-172
-171
-175
-175
-179
-174
-172
-173
-174
-173
-174
-176
-176
-176
-177
-180
-178
-175
-175
-176
-177
-173
-178
-179
-176
-179
-177
-176
-178
-179
-179
-175
-177
-181
-184
-186
-186
-173
-154
-128
-90
-57
-30
-16
-20
-17
-3
28
73
118
138
115
51
-50
-153
-239
-302
-340
-358
-373
-386
-399
-414
-424
-428
-430
-428
-426
-427
-427
-425
-419
-412
-396
-374
-346
-312
-279
-253
-229
-216
-209
-204
-204
-204
-201
-199
-194
-189
-188
-186
-185
-187
-185
-186
-188
-191
-188
-192
-190
-189
-192
-189
-187
-187
-186
-191
-195
-200
-205
-207
-210
-208
-207
-209
-208
-213
-216
-219
-223
-225
-231
-231
-237
-234
-236
-233
-230
-232
-232
-233
-237
-239
-239
-241
-244
-238
-234
-235
-230
-234
-233
-230
-225
-222
-218
-216
-214
-210
-204
-203
-199
-190
-187
-185
-181
-180
-175
-176
-174
-171
-168
-167
-162
-160
-158
-157
-157
-159
-155
-157
-158
-155
-153
-153
-151
-149
-150
-152
-155
-156
-157
-162
-159
-159
-159
-158
-159
-156
-160
-158
-161
-162
-163
-163
-166
-165
-167
-165
-163
-166
-164
-165
-167
-170
-170
-171
-173
-170
-168
-164
-161
-164
-166
-165
-169
-171
-175
-174
-176
-173
-167
-166
-160
-160
-161
-162
-166
-166
-171
-174
-169
-166
-162
-163
-164
-164
-163
-162
-165
-166
-169
-170
-171
-173
-168
-168
-163
-163
-166
-164
-166
-165
-166
-165
-167
-164
-161
-161
-156
-160
-159
-159
-164
-157
-157
-157
-151
-148
-142
-138
-137
-137
-134
-136
-138
-136
-133
-128
-122
-121
-117
-118
-114
-121
-125
-130
-133
-136
-138
-136
-132
-127
-118
-113
-109
-114
-124
-132
-139
-147
-152
-157
-161
-157
-159
-160
-164
-167
-167
-170
-171
-172
-175
-177
-174
-174
-171
-172
-169
-169
-169
-171
-175
-177
-180
-180
-179
-179
-176
-172
-174
-174
-172
-173
-176
-175
-176
-178
-179
-178
-181
-182
-179
-173
-161
-138
-110
-75
-41
-14
3
7
0
0
5
29
64
101
134
143
116
55
-42
-146
-236
-304
-346
-371
-386
-396
-409
-420
-428
-436
-437
-441
-438
-440
-433
-430
-426
-419
-408
-389
-362
-332
-300
-271
-245
-227
-214
-208
-208
-206
-208
-205
-205
-204
-203
-197
-195
-193
-191
-193
-194
-194
-197
-195
-202
-200
-205
-204
-205
-203
-203
-207
-210
-214
-215
-222
-222
-224
-226
-228
-232
-232
-231
-233
-235
-240
-241
-240
-249
-248
-249
-249
-247
-252
-248
-247
-248
-248
-253
-253
-253
-252
-249
-245
-244
-242
-238
-235
-233
-232
-233
-229
-228
-227
-222
-216
-213
-207
-201
-197
-190
-189
-191
-185
-188
-185
-183
-178
-176
-171
-170
-167
-167
-166
-172
-172
-174
-171
-169
-171
-166
-166
-165
-166
-169
-168
-170
-170
-174
-175
-173
-172
-171
-172
-169
-169
-169
-169
-171
-174
-179
-179
-177
-175
-175
-173
-171
-172
-175
-176
-177
-180
-181
-181
-183
-179
-178
-173
-176
-175
-173
-178
-179
-179
-177
-178
-176
-176
-172
-171
-170
-174
-172
-173
-174
-176
-175
-174
-174
-172
-171
-170
-169
-171
-169
-170
-174
-174
-174
-170
-171
-171
-171
-172
-169
-170
-169
-171
-171
-172
-174
-173
-174
-170
-170
-166
-168
-174
-181
-187
-200
-210
-213
-213
-202
-184
-162
-139
-113
-90
-71
-54
-35
-11
20
59
94
129
151
161
165
163
157
150
139
126
107
90
75
63
48
38
16
-18
-64
-120
-175
-229
-274
-305
-317
-305
-278
-244
-215
-187
-162
-137
-120
-102
-95
-93
-96
-104
-117
-129
-151
-178
-211
-239
-266
-279
-281
-285
-275
-272
-268
-266
-269
-274
-279
-281
-288
-293
-297
-297
-302
-303
-303
-308
-308
-312
-317
-320
-327
-331
-337
-338
-342
-347
-344
-344
-347
-354
-355
-353
-358
-365
-368
-369
-371
-370
-369
-371
-366
-363
-364
-362
-367
-369
-367
-364
-367
-361
-360
-353
-352
-348
-349
-343
-340
-338
-338
-339
-334
-327
-322
-318
-309
-307
-303
-301
-297
-299
-300
-296
-292
-285
-278
-275
-270
-265
-261
-256
-253
-251
-250
-244
-243
-239
-235
-232
-226
-223
-218
-216
-213
-207
-205
-202
-199
-197
-193
-189
-185
-183
-179
-180
-181
-178
-180
-181
-177
-177
-174
-172
-169
-172
-170
-169
-170
-172
-172
-173
-170
-169
-165
-165
-161
-159
-160
-165
-165
-165
-165
-169
-170
-169
-166
-164
-162
-160
-161
-160
-161
-165
-165
-166
-167
-163
-164
-163
-163
-161
-160
-163
-164
-163
-163
-167
-166
-161
-159
-158
-157
-158
-155
-161
-161
-162
-164
-164
-162
-158
-155
-154
-151
-153
-158
-152
-155
-154
-157
-156
-158
-159
-157
-156
-154
-153
-153
-152
-152
-155
-156
-156
-155
-154
-153
-154
-153
-151
-152
-153
-151
-155
-155
-157
-156
-154
-150
-151
-149
-152
-150
-152
-155
-154
-156
-157
-154
-155
-152
-149
-149
-146
-145
-143
-145
-141
-143
-141
-137
-134
-133
-130
-128
-124
-123
-121
-116
-111
-111
-111
-109
-109
-111
-116
-119
-121
-126
-129
-125
-122
-119
-111
-108
-108
-115
-121
-125
-135
-143
-146
-151
-159
-165
-168
-165
-166
-166
-166
-165
-167
-165
-166
-170
-172
-175
-178
-176
-176
-173
-173
-168
-167
-170
-171
-172
-173
-177
-172
-176
-176
-174
-174
-169
-169
-173
-174
-179
-184
-186
-188
-175
-151
-126
-92
-59
-29
-17
-11
-20
-21
-5
29
75
121
151
149
105
19
-88
-191
-270
-323
-354
-372
-383
-399
-413
-422
-433
-438
-443
-442
-440
-440
-436
-430
-413
-392
-363
-327
-297
-265
-242
-225
-214
-210
-207
-206
-203
-197
-192
-189
-188
-184
-184
-185
-188
-189
-193
-196
-192
-193
-192
-197
-192
-193
-199
-195
-202
-202
-205
-210
-211
-211
-215
-214
-214
-216
-219
-222
-224
-227
-231
-234
-242
-240
-241
-240
-239
-238
-244
-244
-248
-247
-248
-252
-251
-248
-246
-242
-242
-236
-235
-237
-240
-238
-238
-238
-234
-230
-224
-218
-213
-207
-205
-201
-199
-200
-201
-194
-192
-184
-185
-178
-176
-170
-171
-166
-167
-167
-166
-167
-166
-165
-161
-163
-154
-156
-159
-155
-156
-159
-163
-163
-164
-165
-164
-163
-161
-160
-162
-164
-164
-172
-172
-175
-176
-176
-172
-169
-170
-167
-169
-170
-173
-176
-177
-179
-182
-180
-178
-181
-178
-177
-178
-179
-179
-178
-183
-182
-183
-180
-182
-181
-182
-175
-176
-175
-179
-179
-184
-185
-180
-180
-178
-180
-178
-173
-176
-175
-178
-177
-180
-181
-178
-177
-177
-175
-173
-170
-171
-172
-175
-177
-178
-175
-175
-174
-173
-172
-171
-168
-169
-170
-170
-169
-173
-172
-168
-164
-158
-153
-149
-148
-149
-145
-145
-144
-141
-139
-132
-125
-119
-116
-121
-126
-131
-139
-146
-151
-151
-151
-143
-137
-129
-122
-121
-122
-130
-138
-148
-158
-164
-170
-174
-171
-178
-178
-180
-180
-181
-183
-182
-185
-191
-190
-190
-185
-185
-184
-178
-178
-181
-187
-185
-185
-188
-192
-189
-188
-184
-181
-179
-180
-179
-178
-178
-181
-190
-190
-193
-195
-192
-187
-179
-160
-134
-100
-70
-41
-19
-10
-10
-15
-8
13
50
92
128
141
113
45
-57
-172
-269
-339
-380
-404
-420
-432
-445
-452
-458
-460
-462
-466
-468
-464
-460
-453
-441
-428
-405
-378
-345
-313
-283
-260
-240
-227
-217
-213
-210
-205
-207
-202
-201
-201
-200
-199
-200
-198
-196
-197
-196
-202
-200
-199
-204
-206
-203
-205
-208
-207
-208
-208
-210
-213
-216
-217
-223
-226
-229
-229
-234
-230
-234
-234
-234
-233
-238
-239
-249
-250
-254
-259
-260
-260
-256
-252
-250
-250
-254
-256
-257
-259
-261
-260
-253
-251
-246
-244
-243
-237
-234
-227
-229
-226
-223
-220
-215
-206
-206
-198
-193
-188
-186
-185
-183
-183
-184
-182
-184
-181
-177
-173
-170
-169
-168
-168
-175
-173
-174
-174
-175
-174
-171
-170
-169
-169
-169
-170
-172
-172
-174
-176
-177
-180
-176
-177
-176
-174
-176
-176
-177
-179
-179
-182
-186
-183
-180
-178
-178
-177
-180
-178
-180
-181
-182
-184
-182
-180
-179
-177
-173
-173
-172
-175
-177
-179
-180
-180
-182
-180
-177
-178
-175
-173
-172
-174
-174
-174
-174
-179
-180
-181
-178
-177
-176
-172
-172
-176
-172
-173
-175
-176
-181
-175
-175
-173
-171
-172
-167
-168
-170
-171
-174
-174
-172
-172
-168
-164
-161
-158
-155
-154
-155
-152
-154
-151
-151
-150
-148
-141
-135
-129
-124
-119
-124
-126
-131
-136
-141
-144
-145
-145
-141
-132
-127
-123
-125
-125
-130
-138
-146
-156
-163
-164
-165
-165
-167
-172
-175
-179
-181
-185
-190
-189
-187
-185
-186
-183
-182
-185
-184
-182
-186
-188
-192
-188
-191
-188
-185
-185
-183
-184
-182
-185
-188
-188
-193
-188
-188
-184
-186
-186
-189
-191
-189
-183
-168
-145
-108
-70
-37
-13
-7
-3
-2
17
51
90
128
139
115
48
-47
-148
-236
-299
-342
-373
-396
-411
-428
-440
-447
-453
-456
-455
-452
-452
-447
-441
-432
-419
-396
-363
-331
-298
-267
-244
-226
-217
-213
-212
-211
-215
-213
-210
-209
-207
-206
-201
-198
-198
-202
-201
-200
-204
-204
-209
-207
-208
-210
-207
-208
-210
-212
-214
-214
-221
-223
-229
-233
-233
-232
-235
-235
-236
-241
-241
-244
-248
-255
-258
-260
-260
-262
-263
-262
-260
-262
-261
-263
-264
-265
-266
-266
-265
-262
-261
-255
-256
-246
-243
-242
-241
-236
-234
-230
-229
-221
-215
-212
-211
-206
-203
-200
-199
-194
-192
-192
-190
-186
-184
-179
-178
-177
-175
-175
-181
-182
-180
-182
-178
-171
-172
-171
-169
-169
-170
-171
-178
-177
-176
-177
-178
-177
-175
-174
-170
-175
-179
-176
-180
-184
-181
-183
-184
-182
-183
-182
-181
-181
-183
-181
-185
-186
-184
-187
-188
-187
-186
-186
-183
-181
-184
-180
-184
-185
-186
-187
-185
-185
-181
-179
-179
-178
-179
-179
-179
-181
-183
-184
-181
-181
-182
-178
-176
-175
-178
-173
-180
-176
-179
-180
-179
-178
-176
-174
-173
-176
-175
-175
-177
-180
-175
-179
-175
-172
-168
-164
-161
-161
-161
-158
-155
-154
-152
-151
-152
-145
-140
-130
-123
-120
-123
-125
-133
-135
-140
-146
-149
-149
-146
-138
-131
-127
-123
-126
-130
-140
-149
-162
-166
-171
-173
-175
-174
-180
-181
-182
-184
-188
-192
-196
-198
-195
-194
-195
-190
-190
-189
-191
-190
-193
-196
-198
-200
-198
-194
-193
-191
-191
-192
-192
-196
-195
-193
-194
-194
-190
-191
-193
-191
-195
-201
-201
-203
-192
-173
-148
-115
-79
-53
-32
-25
-26
-30
-22
1
39
86
125
145
130
69
-22
-129
-229
-311
-361
-397
-413
-428
-443
-456
-461
-463
-466
-466
-465
-465
-461
-455
-448
-433
-414
-388
-358
-325
-297
-270
-248
-236
-228
-224
-225
-222
-222
-218
-213
-208
-205
-206
-202
-204
-201
-203
-204
-205
-207
-210
-210
-208
-204
-203
-207
-205
-209
-213
-215
-219
-224
-225
-223
-224
-225
-229
-234
-236
-237
-241
-246
-244
-250
-253
-250
-252
-255
-253
-256
-255
-260
-261
-266
-266
-269
-266
-263
-260
-261
-262
-259
-256
-257
-253
-254
-249
-245
-240
-237
-234
-226
-224
-222
-221
-216
-212
-213
-210
-209
-206
-201
-196
-191
-189
-186
-188
-185
-185
-183
-184
-186
-184
-180
-185
-179
-177
-181
-182
-180
-180
-182
-184
-185
-179
-180
-179
-178
-176
-179
-177
-181
-184
-183
-186
-186
-187
-185
-183
-183
-182
-186
-187
-189
-188
-191
-191
-194
-194
-191
-188
-189
-186
-187
-188
-187
-187
-191
-191
-189
-189
-190
-187
-190
-186
-182
-185
-184
-184
-189
-191
-191
-188
-190
-187
-188
-184
-185
-186
-185
-186
-189
-187
-188
-190
-187
-183
-185
-181
-179
-179
-184
-184
-184
-189
-187
-186
-182
-177
-174
-174
-170
-166
-164
-164
-161
-161
-158
-158
-155
-151
-147
-138
-130
-129
-128
-128
-133
-135
-141
-150
-152
-156
-156
-149
-141
-135
-131
-129
-131
-138
-151
-159
-169
-171
-171
-172
-173
-176
-179
-183
-188
-195
-198
-199
-199
-195
-193
-188
-190
-190
-194
-200
-202
-203
-203
-205
-198
-198
-195
-193
-195
-198
-201
-198
-202
-198
-201
-198
-198
-195
-195
-195
-192
-197
-200
-203
-208
-207
-195
-179
-150
-115
-79
-45
-24
-19
-21
-23
-15
14
57
104
136
135
86
-3
-118
-228
-313
-372
-406
-428
-445
-456
-463
-472
-474
-479
-478
-480
-481
-482
-480
-477
-467
-452
-435
-407
-372
-335
-304
-279
-261
-244
-237
-236
-236
-234
-225
-223
-218
-216
-215
-213
-211
-211
-210
-215
-213
-212
-213
-210
-214
-213
-215
-218
-221
-226
-228
-231
-228
-232
-233
-233
-238
-239
-242
-244
-251
-256
-258
-261
-265
-264
-266
-264
-263
-263
-266
-273
-274
-274
-276
-278
-277
-279
-276
-276
-275
-276
-273
-274
-271
-270
-270
-270
-269
-266
-262
-254
-252
-245
-242
-238
-234
-232
-229
-229
-225
-221
-221
-215
-206
-204
-202
-200
-200
-201
-200
-196
-195
-195
-193
-191
-189
-185
-187
-189
-189
-193
-195
-195
-195
-191
-192
-190
-190
-189
-189
-193
-193
-194
-195
-200
-203
-202
-200
-200
-198
-196
-196
-198
-199
-204
-204
-201
-204
-206
-204
-203
-205
-205
-201
-204
-202
-204
-203
-203
-206
-206
-206
-204
-204
-198
-197
-198
-198
-199
-201
-202
-204
-202
-203
-197
-194
-194
-195
-195
-198
-198
-197
-202
-200
-200
-199
-196
-195
-198
-196
-192
-194
-197
-201
-199
-199
-198
-198
-195
-194
-193
-190
-189
-188
-189
-189
-192
-189
-187
-183
-182
-177
-173
-170
-169
-167
-168
-170
-171
-169
-161
-152
-144
-142
-137
-145
-147
-156
-164
-168
-174
-170
-164
-159
-149
-143
-140
-143
-148
-156
-167
-178
-186
-193
-195
-199
-196
-198
-199
-201
-203
-204
-208
-204
-209
-209
-209
-209
-207
-208
-204
-204
-205
-203
-210
-212
-213
-212
-211
-207
-207
-206
-205
-205
-206
-204
-210
-210
-214
-220
-219
-216
-213
-204
-183
-154
-114
-75
-43
-23
-22
-25
-21
-3
35
82
120
135
105
30
-70
-181
-276
-344
-390
-417
-431
-445
-454
-461
-468
-469
-478
-483
-493
-501
-505
-500
-488
-468
-450
-423
-392
-357
-325
-303
-284
-276
-266
-258
-248
-239
-233
-232
-238
-246
-249
-249
-247
-242
-236
-236
-237
-241
-236
-233
-230
-228
-231
-237
-244
-249
-250
-245
-249
-252
-255
-256
-255
-257
-262
-264
-270
-274
-276
-282
-281
-284
-284
-283
-276
-274
-278
-281
-284
-284
-291
-292
-291
-291
-291
-287
-284
-280
-278
-275
-280
-284
-285
-283
-273
-259
-251
-241
-246
-251
-256
-252
-242
-231
-225
-220
-214
-212
-209
-208
-208
-207
-209
-203
-198
-194
-193
-194
-196
-199
-202
-205
-200
-193
-186
-178
-178
-182
-186
-187
-187
-187
-190
-191
-193
-197
-203
-204
-195
-185
-181
-181
-186
-191
-196
-195
-197
-202
-204
-206
-207
-204
-201
-200
-196
-199
-200
-203
-200
-201
-201
-199
-200
-203
-207
-213
-211
-206
-196
-182
-178
-181
-184
-193
-201
-208
-208
-202
-201
-198
-201
-196
-193
-192
-190
-188
-183
-185
-188
-188
-188
-191
-191
-190
-193
-196
-195
-192
-189
-190
-190
-193
-194
-190
-181
-178
-177
-181
-185
-183
-179
-173
-167
-167
-164
-161
-159
-159
-155
-153
-149
-142
-137
-134
-134
-134
-137
-141
-150
-154
-160
-167
-162
-157
-152
-143
-136
-133
-136
-142
-153
-161
-168
-174
-180
-184
-191
-196
-199
-198
-197
-194
-192
-188
-188
-188
-192
-197
-202
-206
-205
-201
-198
-192
-195
-196
-202
-202
-200
-199
-197
-197
-197
-197
-199
-197
-198
-200
-201
-201
-198
-202
-205
-209
-209
-206
-197
-181
-151
-117
-79
-40
-9
6
5
0
-1
13
42
88
128
164
170
145
77
-21
-136
-241
-326
-375
-406
-427
-439
-456
-467
-479
-488
-490
-494
-495
-493
-495
-491
-481
-469
-452
-421
-382
-347
-313
-292
-278
-267
-260
-249
-244
-235
-230
-227
-231
-236
-238
-240
-240
-229
-220
-207
-197
-198
-206
-221
-234
-245
-252
-252
-246
-238
-235
-231
-230
-231
-231
-236
-242
-243
-249
-249
-253
-258
-261
-263
-263
-266
-268
-269
-269
-273
-276
-280
-282
-288
-287
-290
-289
-291
-287
-292
-290
-292
-295
-296
-296
-292
-288
-284
-280
-280
-281
-275
-275
-276
-273
-276
-274
-271
-264
-256
-248
-243
-236
-229
-230
-228
-231
-233
-229
-225
-220
-207
-203
-197
-200
-206
-207
-208
-209
-206
-206
-206
-210
-211
-207
-201
-196
-196
-204
-218
-226
-231
-231
-226
-217
-210
-212
-212
-214
-220
-221
-227
-226
-227
-228
-229
-236
-244
-251
-249
-244
-244
-242
-240
-239
-240
-246
-249
-258
-266
-271
-270
-264
-256
-251
-247
-249
-245
-248
-250
-250
-250
-250
-252
-252
-257
-257
-259
-255
-253
-249
-244
-246
-258
-262
-264
-259
-247
-236
-231
-237
-248
-258
-249
-244
-234
-232
-234
-239
-236
-235
-239
-242
-248
-245
-241
-235
-231
-229
-223
-218
-212
-206
-208
-207
-206
-199
-187
-178
-173
-178
-191
-203
-208
-212
-213
-202
-184
-164
-150
-151
-155
-171
-191
-204
-216
-219
-216
-206
-206
-202
-209
-217
-219
-218
-216
-211
-204
-199
-200
-210
-222
-232
-245
-245
-231
-217
-200
-196
-195
-202
-209
-219
-228
-233
-236
-238
-232
-224
-217
-210
-211
-216
-220
-224
-229
-232
-225
-208
-184
-151
-116
-81
-49
-32
-32
-40
-46
-39
-15
23
68
101
114
97
47
-35
-127
-223
-294
-345
-364
-367
-361
-358
-362
-367
-377
-382
-386
-402
-415
-419
-412
-392
-373
-352
-329
-306
-281
-259
-242
-234
-225
-222
-220
-218
-209
-201
-196
-191
-192
-193
-198
-210
-223
-232
-224
-211
-193
-185
-182
-183
-191
-204
-216
-221
-220
-219
-213
-205
-201
-202
-206
-215
-221
-223
-220
-218
-218
-224
-226
-232
-235
-233
-232
-232
-233
-236
-235
-241
-244
-247
-244
-242
-237
-236
-235
-241
-244
-245
-242
-236
-230
-226
-223
-219
-219
-216
-212
-210
-208
-208
-202
-195
-191
-183
-181
-182
-178
-177
-171
-168
-164
-158
-152
-149
-147
-148
-146
-146
-145
-142
-141
-140
-142
-141
-142
-140
-137
-137
-133
-132
-129
-127
-127
-125
-128
-129
-130
-131
-127
-126
-129
-128
-131
-129
-130
-126
-129
-126
-126
-126
-128
-127
-129
-129
-127
-127
-126
-125
-123
-127
-129
-126
-125
-127
-128
-130
-128
-126
-123
-120
-119
-121
-127
-126
-125
-126
-127
-123
-121
-119
-120
-119
-116
-115
-122
-117
-119
-121
-119
-120
-121
-120
-120
-116
-118
-121
-118
-115
-114
-117
-117
-121
-118
-115
-109
-108
-107
-103
-104
-104
-105
-101
-99
-96
-95
-93
-89
-82
-77
-74
-76
-80
-80
-86
-93
-94
-96
-95
-89
-85
-80
-80
-76
-83
-90
-102
-108
-113
-116
-116
-121
-117
-119
-121
-122
-129
-132
-135
-136
-134
-135
-130
-130
-127
-128
-132
-132
-138
-138
-136
-132
-132
-132
-128
-130
-131
-134
-134
-137
-134
-137
-139
-140
-142
-144
-146
-145
-144
-142
-130
-109
-81
-58
-32
-17
-11
-12
-14
-7
9
41
77
113
127
113
59
-20
-104
-176
-223
-248
-257
-263
-267
-270
-280
-289
-299
-305
-310
-311
-313
-309
-309
-302
-285
-264
-239
-210
-182
-163
-153
-147
-145
-149
-153
-155
-151
-147
-149
-146
-144
-144
-147
-144
-142
-143
-145
-145
-144
-149
-150
-152
-151
-155
-153
-154
-153
-156
-156
-162
-169
-172
-178
-181
-184
-180
-182
-185
-184
-184
-186
-189
-193
-193
-196
-201
-206
-208
-213
-208
-205
-201
-200
-201
-203
-204
-207
-208
-209
-210
-206
-199
-196
-191
-187
-185
-180
-181
-182
-176
-172
-168
-164
-160
-155
-149
-141
-139
-138
-141
-134
-133
-128
-126
-126
-126
-122
-122
-114
-115
-115
-116
-114
-118
-118
-119
-117
-116
-110
-111
-111
-113
-111
-116
-116
-121
-119
-117
-116
-115
-110
-110
-110
-110
-112
-114
-118
-120
-122
-122
-122
-119
-118
-117
-113
-116
-114
-116
-119
-120
-119
-118
-119
-117
-117
-116
-114
-113
-115
-118
-120
-117
-117
-118
-118
-119
-117
-117
-115
-117
-112
-117
-119
-122
-120
-118
-116
-115
-112
-110
-109
-107
-105
-102
-104
-100
-98
-98
-99
-94
-90
-87
-81
-78
-73
-72
-72
-73
-78
-82
-87
-88
-89
-87
-85
-82
-77
-74
-73
-74
-76
-84
-91
-94
-97
-100
-103
-108
-109
-112
-118
-119
-124
-127
-127
-128
-128
-126
-123
-126
-125
-126
-128
-129
-130
-130
-130
-131
-127
-125
-123
-124
-128
-126
-132
-135
-132
-133
-133
-133
-131
-131
-130
-135
-140
-145
-146
-146
-132
-117
-88
-55
-27
-6
6
5
3
7
20
46
83
112
130
126
89
33
-37
-111
-168
-207
-228
-241
-255
-270
-280
-285
-291
-293
-297
-305
-309
-311
-314
-313
-309
-300
-287
-266
-241
-211
-188
-170
-155
-148
-151
-154
-159
-160
-158
-155
-146
-141
-142
-140
-142
-146
-147
-148
-150
-152
-152
-149
-148
-150
-148
-149
-152
-155
-157
-163
-166
-166
-167
-170
-171
-173
-174
-170
-175
-179
-185
-186
-188
-192
-192
-192
-194
-191
-194
-196
-200
-200
-207
-205
-209
-210
-210
-210
-208
-206
-202
-202
-202
-200
-201
-199
-199
-197
-195
-190
-189
-182
-176
-173
-173
-169
-163
-161
-160
-160
-152
-146
-139
-135
-133
-136
-134
-130
-126
-124
-121
-121
-118
-119
-114
-113
-111
-109
-111
-112
-114
-115
-115
-115
-114
-112
-113
-110
-108
-110
-112
-112
-112
-113
-114
-115
-118
-116
-115
-113
-110
-110
-112
-115
-118
-123
-122
-124
-125
-124
-119
-118
-116
-117
-118
-122
-123
-124
-124
-123
-124
-120
-121
-116
-115
-116
-119
-118
-119
-124
-125
-124
-127
-120
-117
-113
-112
-115
-115
-114
-114
-115
-117
-119
-119
-118
-115
-114
-111
-110
-106
-108
-107
-106
-105
-110
-103
-102
-98
-94
-88
-84
-83
-78
-77
-73
-73
-70
-72
-73
-78
-80
-83
-86
-88
-84
-80
-73
-70
-68
-68
-70
-78
-84
-92
-98
-105
-107
-113
-114
-117
-120
-124
-123
-123
-123
-122
-124
-122
-125
-127
-128
-132
-134
-132
-132
-129
-130
-126
-126
-126
-126
-128
-127
-126
-129
-127
-127
-124
-126
-126
-127
-132
-134
-139
-140
-138
-121
-97
-63
-32
-1
19
30
32
38
56
85
120
147
157
143
91
13
-70
-146
-205
-246
-275
-291
-301
-317
-328
-333
-336
-338
-342
-348
-349
-347
-347
-339
-326
-308
-283
-254
-222
-198
-179
-169
-164
-159
-164
-157
-160
-157
-154
-153
-151
-146
-139
-140
-142
-145
-148
-149
-152
-152
-150
-150
-149
-148
-146
-147
-147
-146
-148
-152
-156
-162
-168
-168
-169
-171
-168
-171
-176
-184
-190
-196
-200
-201
-199
-197
-195
-195
-199
-198
-207
-206
-210
-212
-215
-215
-210
-207
-207
-204
-200
-200
-200
-197
-197
-197
-195
-191
-187
-182
-176
-168
-163
-159
-155
-152
-153
-152
-151
-149
-151
-146
-140
-134
-130
-127
-127
-133
-132
-128
-131
-133
-131
-130
-129
-129
-129
-125
-127
-129
-133
-134
-134
-134
-132
-133
-131
-133
-133
-132
-136
-136
-142
-142
-143
-146
-147
-146
-144
-142
-142
-138
-142
-147
-154
-153
-155
-157
-155
-153
-150
-148
-145
-145
-149
-146
-147
-146
-149
-148
-148
-154
-151
-150
-149
-144
-148
-147
-147
-149
-150
-152
-152
-153
-154
-156
-157
-150
-153
-145
-144
-141
-139
-143
-143
-143
-140
-132
-127
-127
-128
-133
-134
-134
-129
-124
-118
-116
-112
-112
-112
-114
-120
-122
-127
-131
-132
-132
-131
-127
-123
-124
-120
-126
-133
-142
-155
-165
-171
-178
-177
-179
-181
-186
-186
-187
-189
-192
-193
-195
-203
-204
-206
-210
-209
-209
-207
-209
-209
-210
-214
-213
-214
-217
-219
-220
-218
-221
-218
-220
-225
-228
-235
-239
-246
-249
-246
-236
-218
-195
-165
-138
-117
-99
-97
-96
-92
-73
-41
-2
38
54
46
-3
-83
-173
-260
-329
-384
-417
-444
-460
-470
-479
-485
-488
-494
-496
-500
-501
-499
-495
-486
-466
-445
-418
-391
-362
-340
-325
-316
-309
-306
-302
-301
-295
-291
-290
-286
-286
-284
-289
-291
-291
-292
-292
-292
-293
-294
-295
-296
-297
-299
-299
-306
-308
-312
-314
-316
-317
-316
-318
-317
-318
-321
-324
-329
-332
-335
-344
-343
-345
-341
-340
-341
-337
-340
-345
-351
-354
-354
-356
-354
-351
-351
-347
-344
-342
-339
-339
-338
-338
-337
-334
-330
-326
-319
-317
-310
-306
-301
-301
-299
-295
-296
-292
-293
-291
-281
-282
-276
-272
-273
-273
-271
-274
-273
-274
-274
-269
-267
-262
-260
-262
-267
-268
-270
-268
-265
-267
-270
-267
-265
-265
-267
-263
-267
-267
-266
-269
-269
-270
-274
-274
-272
-270
-269
-271
-275
-278
-277
-276
-276
-278
-278
-278
-279
-276
-276
-276
-275
-276
-275
-277
-277
-278
-276
-272
-271
-270
-269
-267
-268
-268
-271
-273
-274
-273
-276
-272
-267
-267
-264
-266
-263
-266
-263
-265
-265
-265
-264
-260
-256
-253
-251
-249
-244
-240
-239
-239
-239
-237
-231
-226
-219
-214
-209
-208
-210
-216
-221
-227
-234
-238
-239
-230
-224
-217
-215
-209
-212
-219
-229
-238
-248
-254
-259
-260
-259
-260
-263
-266
-267
-269
-271
-272
-277
-277
-275
-276
-274
-272
-269
-268
-271
-271
-278
-276
-278
-276
-274
-274
-272
-271
-270
-267
-266
-267
-269
-272
-277
-277
-280
-277
-273
-261
-244
-221
-197
-167
-142
-128
-123
-120
-111
-89
-53
-8
29
50
37
-9
-87
-180
-267
-339
-388
-419
-439
-456
-470
-486
-499
-512
-517
-518
-520
-521
-522
-518
-510
-503
-486
-465
-441
-416
-387
-361
-343
-324
-311
-304
-297
-289
-285
-285
-282
-279
-277
-278
-277
-276
-274
-273
-272
-270
-271
-273
-265
-266
-271
-273
-275
-278
-283
-282
-281
-281
-281
-284
-287
-287
-288
-291
-296
-297
-300
-302
-299
-300
-303
-305
-309
-311
-312
-315
-324
-323
-326
-322
-318
-315
-314
-315
-319
-320
-323
-329
-328
-322
-317
-313
-310
-308
-303
-300
-295
-287
-283
-280
-279
-281
-278
-274
-266
-261
-252
-248
-246
-252
-253
-252
-249
-248
-241
-242
-241
-243
-247
-246
-244
-233
-224
-219
-220
-227
-237
-243
-242
-234
-226
-221
-220
-221
-226
-230
-235
-237
-235
-236
-233
-232
-228
-229
-230
-234
-237
-239
-240
-242
-239
-238
-234
-234
-239
-241
-245
-244
-242
-241
-241
-241
-238
-238
-237
-239
-239
-236
-237
-232
-232
-233
-237
-240
-243
-243
-241
-234
-231
-228
-225
-227
-229
-233
-235
-235
-237
-234
-233
-229
-231
-226
-226
-225
-226
-226
-229
-230
-226
-220
-216
-213
-207
-204
-204
-201
-198
-198
-200
-209
-209
-201
-187
-172
-159
-156
-162
-172
-183
-190
-196
-195
-194
-193
-188
-186
-176
-166
-164
-163
-175
-188
-198
-203
-207
-211
-213
-219
-222
-227
-226
-229
-231
-232
-234
-234
-235
-232
-236
-237
-236
-235
-236
-233
-236
-238
-240
-242
-247
-242
-242
-236
-235
-236
-234
-237
-241
-245
-248
-248
-240
-234
-233
-234
-238
-242
-249
-247
-239
-218
-191
-155
-123
-95
-79
-78
-82
-78
-61
-27
25
75
106
109
70
-6
-111
-217
-304
-359
-394
-415
-435
-459
-480
-497
-504
-507
-504
-501
-501
-500
-495
-488
-484
-471
-449
-422
-387
-352
-321
-296
-277
-269
-263
-264
-262
-258
-254
-251
-251
-249
-248
-242
-241
-238
-239
-241
-240
-244
-249
-252
-256
-256
-253
-251
-249
-244
-248
-250
-253
-256
-260
-268
-272
-274
-273
-270
-266
-265
-266
-269
-273
-281
-283
-289
-291
-293
-296
-293
-293
-292
-291
-287
-291
-291
-297
-304
-309
-311
-306
-297
-285
-280
-278
-278
-281
-283
-285
-279
-273
-268
-258
-248
-244
-241
-239
-238
-239
-238
-234
-229
-221
-220
-213
-212
-211
-214
-213
-213
-214
-213
-213
-213
-210
-209
-209
-206
-206
-202
-203
-200
-203
-203
-210
-207
-206
-208
-208
-207
-207
-204
-205
-202
-201
-209
-209
-209
-209
-211
-211
-211
-212
-215
-217
-218
-215
-217
-214
-211
-210
-211
-210
-211
-210
-216
-216
-217
-219
-222
-221
-217
-218
-211
-210
-210
-209
-209
-204
-198
-197
-204
-212
-219
-224
-223
-215
-207
-197
-198
-198
-196
-203
-206
-207
-210
-211
-211
-214
-213
-207
-199
-194
-188
-186
-188
-193
-190
-187
-182
-178
-176
-171
-168
-159
-152
-143
-141
-145
-149
-158
-161
-164
-166
-169
-168
-167
-160
-153
-150
-152
-155
-162
-169
-175
-180
-185
-188
-193
-195
-199
-203
-208
-213
-217
-220
-218
-217
-215
-216
-221
-220
-222
-219
-216
-217
-219
-219
-220
-214
-211
-208
-208
-212
-217
-218
-217
-219
-218
-220
-223
-225
-225
-221
-218
-214
-207
-198
-181
-151
-116
-77
-51
-39
-40
-40
-22
9
63
105
130
119
65
-34
-147
-258
-343
-400
-436
-453
-463
-473
-478
-483
-494
-497
-499
-497
-494
-487
-482
-475
-466
-450
-426
-397
-365
-334
-304
-280
-260
-248
-242
-237
-236
-236
-233
-233
-235
-229
-226
-223
-221
-224
-221
-218
-219
-220
-220
-217
-219
-216
-221
-224
-229
-228
-231
-231
-232
-233
-236
-239
-249
-251
-256
-251
-250
-246
-246
-246
-249
-253
-255
-260
-265
-269
-276
-276
-274
-270
-267
-269
-270
-273
-275
-277
-279
-275
-270
-267
-266
-263
-261
-258
-254
-250
-246
-242
-238
-235
-228
-221
-216
-213
-211
-207
-204
-201
-208
-211
-208
-204
-202
-196
-191
-189
-186
-187
-187
-191
-192
-189
-189
-186
-184
-183
-185
-185
-190
-190
-190
-190
-194
-195
-196
-197
-197
-198
-196
-193
-192
-189
-192
-196
-202
-207
-211
-210
-206
-202
-197
-199
-199
-206
-208
-213
-211
-210
-213
-209
-204
-202
-200
-199
-205
-207
-206
-205
-207
-207
-209
-211
-213
-210
-204
-200
-198
-198
-201
-202
-203
-201
-204
-203
-206
-201
-200
-198
-198
-199
-200
-201
-200
-205
-203
-202
-199
-197
-194
-190
-193
-191
-188
-189
-187
-187
-185
-182
-175
-175
-172
-166
-165
-166
-160
-151
-148
-142
-144
-147
-146
-153
-157
-160
-163
-167
-165
-162
-158
-150
-148
-148
-143
-153
-158
-166
-178
-191
-197
-200
-204
-202
-205
-209
-211
-211
-209
-206
-205
-205
-211
-210
-212
-215
-217
-217
-215
-215
-212
-213
-210
-212
-210
-211
-210
-211
-213
-214
-216
-214
-211
-208
-216
-218
-225
-227
-226
-220
-212
-193
-166
-129
-91
-62
-44
-34
-34
-37
-27
-2
40
92
129
133
94
9
-109
-228
-331
-399
-442
-460
-469
-473
-480
-487
-494
-498
-497
-499
-498
-495
-489
-482
-469
-450
-421
-384
-345
-313
-280
-259
-246
-240
-239
-238
-241
-233
-229
-225
-223
-217
-217
-217
-215
-215
-216
-214
-217
-220
-227
-229
-232
-227
-227
-224
-220
-220
-224
-224
-232
-232
-238
-239
-239
-238
-241
-248
-251
-255
-254
-255
-258
-258
-257
-258
-256
-257
-258
-265
-273
-274
-274
-273
-277
-273
-270
-265
-267
-264
-264
-267
-265
-262
-258
-253
-248
-244
-240
-230
-228
-219
-218
-218
-218
-216
-207
-201
-202
-200
-196
-194
-194
-183
-182
-180
-181
-182
-182
-183
-182
-183
-177
-175
-175
-176
-177
-180
-181
-181
-183
-182
-179
-183
-179
-179
-177
-174
-177
-179
-179
-183
-192
-196
-194
-192
-186
-182
-184
-182
-184
-189
-189
-193
-192
-191
-192
-193
-188
-190
-186
-185
-187
-191
-188
-188
-189
-186
-184
-182
-184
-184
-189
-187
-185
-183
-185
-182
-183
-184
-188
-186
-183
-180
-181
-183
-186
-184
-183
-188
-187
-187
-190
-184
-181
-175
-178
-176
-181
-178
-178
-180
-181
-181
-180
-180
-181
-181
-178
-169
-165
-161
-158
-159
-157
-156
-157
-156
-152
-150
-142
-137
-135
-129
-127
-128
-131
-134
-140
-140
-143
-146
-149
-152
-145
-140
-138
-135
-124
-123
-126
-132
-141
-152
-158
-162
-168
-175
-177
-184
-190
-188
-195
-194
-194
-193
-194
-192
-192
-194
-195
-198
-195
-199
-197
-198
-199
-197
-194
-188
-191
-194
-198
-200
-200
-196
-199
-198
-196
-190
-189
-186
-189
-192
-195
-198
-204
-204
-202
-191
-169
-137
-102
-68
-37
-20
-21
-23
-24
-6
29
79
120
152
139
82
-10
-124
-228
-311
-372
-407
-427
-442
-454
-466
-475
-479
-482
-479
-481
-479
-482
-484
-482
-472
-459
-437
-409
-376
-341
-308
-282
-264
-250
-238
-232
-226
-221
-217
-213
-212
-211
-208
-204
-204
-206
-208
-206
-209
-208
-207
-204
-202
-200
-200
-201
-203
-204
-207
-210
-212
-212
-216
-215
-214
-218
-219
-223
-227
-230
-233
-237
-235
-236
-241
-243
-244
-246
-247
-250
-248
-251
-248
-253
-252
-253
-252
-255
-255
-256
-257
-255
-253
-252
-250
-249
-247
-244
-240
-237
-230
-229
-225
-222
-215
-214
-210
-206
-199
-197
-189
-188
-180
-182
-184
-184
-183
-183
-182
-180
-180
-178
-173
-172
-168
-169
-170
-168
-170
-171
-173
-174
-177
-175
-173
-174
-171
-168
-164
-169
-171
-167
-174
-177
-181
-182
-179
-178
-173
-174
-174
-177
-179
-182
-180
-181
-187
-186
-185
-181
-180
-180
-180
-183
-183
-186
-189
-188
-186
-187
-185
-182
-179
-181
-175
-181
-184
-188
-190
-192
-190
-182
-182
-182
-182
-180
-180
-181
-183
-186
-186
-187
-186
-189
-185
-182
-179
-177
-177
-176
-181
-180
-182
-182
-182
-181
-180
-179
-176
-175
-176
-177
-176
-172
-170
-173
-170
-171
-168
-166
-163
-161
-158
-155
-149
-152
-150
-151
-147
-140
-130
-122
-115
-111
-115
-121
-126
-140
-151
-153
-149
-138
-126
-119
-115
-120
-126
-137
-148
-159
-169
-172
-179
-180
-182
-180
-180
-184
-185
-186
-191
-193
-192
-190
-192
-190
-193
-191
-189
-185
-186
-191
-191
-194
-194
-194
-195
-192
-191
-188
-186
-186
-189
-192
-194
-194
-191
-195
-197
-195
-194
-188
-175
-155
-129
-92
-61
-32
-20
-19
-21
-13
12
50
96
132
144
109
27
-91
-213
-319
-391
-433
-452
-460
-463
-469
-476
-476
-481
-478
-476
-476
-469
-464
-453
-435
-417
-390
-357
-328
-299
-276
-260
-244
-233
-229
-224
-220
-217
-213
-206
-206
-199
-199
-201
-200
-199
-197
-196
-202
-205
-206
-203
-201
-200
-206
-208
-215
-216
-218
-217
-217
-217
-217
-218
-215
-216
-220
-225
-230
-236
-236
-237
-245
-240
-246
-247
-248
-248
-245
-246
-248
-251
-254
-255
-253
-253
-250
-250
-251
-248
-246
-245
-242
-240
-241
-230
-232
-225
-222
-220
-215
-212
-211
-206
-201
-196
-193
-189
-188
-187
-182
-177
-173
-172
-173
-179
-176
-171
-166
-166
-164
-162
-160
-163
-160
-163
-159
-162
-162
-168
-162
-162
-158
-160
-158
-156
-165
-169
-168
-164
-163
-163
-162
-167
-163
-163
-159
-159
-162
-168
-169
-170
-171
-168
-168
-168
-166
-168
-166
-168
-167
-166
-172
-173
-172
-171
-171
-171
-169
-167
-168
-167
-163
-160
-159
-161
-159
-159
-164
-168
-168
-165
-160
-159
-160
-161
-160
-159
-159
-160
-162
-155
-159
-158
-160
-158
-155
-158
-155
-158
-164
-165
-165
-161
-158
-154
-153
-156
-155
-153
-154
-157
-154
-152
-151
-148
-145
-147
-141
-140
-142
-140
-136
-135
-133
-130
-133
-126
-122
-118
-113
-104
-97
-91
-90
-99
-105
-111
-118
-121
-123
-120
-114
-110
-107
-102
-96
-105
-104
-107
-110
-118
-122
-129
-137
-146
-151
-156
-157
-156
-158
-158
-158
-156
-159
-163
-171
-173
-170
-169
-166
-164
-166
-167
-168
-167
-167
-165
-164
-164
-163
-165
-165
-168
-167
-166
-166
-161
-160
-159
-158
-162
-165
-170
-173
-174
-170
-156
-132
-99
-59
-24
2
14
14
14
26
54
96
135
159
148
94
1
-107
-209
-295
-351
-382
-398
-409
-416
-424
-431
-438
-443
-445
-444
-446
-445
-439
-436
-431
-416
-396
-369
-335
-303
-273
-249
-229
-216
-207
-201
-195
-190
-189
-182
-182
-176
-175
-172
-169
-169
-169
-169
-171
-174
-179
-180
-181
-175
-173
-171
-168
-169
-171
-176
-185
-185
-186
-187
-188
-192
-191
-191
-193
-195
-203
-208
-213
-212
-214
-213
-216
-214
-217
-215
-218
-219
-220
-224
-227
-228
-230
-227
-225
-217
-214
-214
-215
-214
-212
-210
-209
-208
-206
-202
-195
-190
-185
-181
-177
-176
-172
-170
-169
-167
-162
-158
-155
-151
-147
-142
-139
-140
-143
-142
-144
-143
-141
-138
-132
-131
-131
-132
-133
-133
-136
-141
-138
-137
-135
-134
-136
-132
-133
-137
-136
-141
-143
-146
-146
-144
-144
-142
-141
-139
-142
-148
-151
-150
-150
-151
-152
-149
-151
-151
-149
-150
-149
-149
-150
-149
-150
-149
-150
-150
-151
-148
-145
-143
-144
-147
-151
-151
-150
-149
-150
-152
-148
-146
-145
-143
-144
-145
-145
-145
-144
-147
-151
-153
-151
-145
-142
-141
-140
-139
-138
-141
-138
-140
-145
-149
-151
-145
-143
-137
-133
-131
-132
-131
-133
-131
-129
-129
-130
-126
-124
-117
-112
-110
-107
-106
-103
-95
-90
-83
-87
-90
-96
-98
-104
-105
-106
-106
-105
-104
-101
-98
-90
-90
-93
-97
-102
-111
-117
-124
-130
-134
-137
-138
-141
-140
-148
-149
-152
-153
-149
-154
-157
-159
-158
-158
-159
-155
-155
-155
-156
-155
-155
-157
-162
-161
-162
-160
-159
-156
-157
-158
-154
-154
-155
-154
-157
-160
-164
-166
-170
-169
-163
-150
-123
-91
-58
-27
-5
5
5
5
9
31
66
110
147
166
152
97
7
-101
-207
-289
-344
-375
-392
-402
-416
-426
-437
-445
-453
-455
-452
-450
-447
-437
-431
-421
-409
-393
-366
-338
-307
-278
-251
-233
-212
-203
-188
-184
-181
-177
-175
-175
-174
-173
-177
-177
-167
-165
-160
-162
-163
-167
-171
-174
-172
-172
-176
-177
-178
-178
-177
-178
-179
-179
-189
-189
-195
-197
-201
-199
-201
-203
-205
-204
-200
-201
-203
-208
-211
-219
-221
-220
-219
-220
-223
-225
-224
-220
-221
-220
-217
-223
-226
-227
-226
-225
-222
-216
-212
-203
-200
-202
-202
-205
-201
-199
-193
-182
-177
-171
-166
-161
-161
-160
-158
-158
-155
-158
-156
-157
-154
-150
-142
-137
-133
-136
-139
-141
-144
-141
-141
-140
-139
-136
-134
-134
-137
-137
-139
-144
-145
-144
-144
-143
-139
-140
-137
-137
-140
-142
-144
-149
-152
-154
-152
-150
-149
-153
-148
-148
-147
-148
-146
-148
-153
-154
-157
-151
-150
-147
-149
-144
-147
-146
-145
-148
-146
-150
-156
-156
-155
-152
-148
-145
-145
-146
-147
-149
-149
-148
-147
-145
-143
-144
-146
-145
-145
-146
-147
-146
-148
-148
-147
-148
-148
-144
-144
-141
-142
-142
-144
-148
-150
-147
-146
-144
-143
-143
-141
-142
-139
-138
-134
-133
-131
-135
-130
-126
-126
-121
-117
-118
-112
-111
-108
-103
-99
-95
-93
-93
-97
-100
-102
-107
-111
-113
-113
-110
-104
-100
-95
-97
-101
-110
-119
-127
-133
-138
-141
-146
-149
-155
-157
-162
-159
-158
-158
-158
-157
-160
-164
-165
-164
-165
-164
-164
-162
-165
-166
-165
-166
-166
-164
-164
-164
-164
-165
-164
-161
-160
-159
-163
-164
-165
-167
-163
-154
-138
-117
-87
-51
-19
6
15
15
10
10
33
64
99
142
154
137
80
-16
-126
-231
-311
-364
-394
-410
-419
-427
-434
-439
-443
-448
-451
-451
-449
-447
-439
-431
-423
-405
-379
-346
-318
-287
-260
-236
-217
-206
-198
-195
-194
-194
-190
-184
-181
-175
-176
-174
-175
-177
-177
-177
-177
-178
-177
-176
-176
-178
-178
-179
-182
-185
-190
-193
-198
-197
-193
-195
-193
-195
-202
-203
-204
-208
-211
-217
-220
-225
-226
-225
-225
-220
-222
-222
-226
-229
-232
-236
-237
-237
-237
-237
-232
-230
-226
-225
-223
-221
-220
-219
-220
-221
-219
-211
-205
-195
-188
-182
-185
-182
-183
-182
-179
-175
-171
-167
-162
-157
-159
-161
-156
-156
-156
-156
-156
-154
-150
-148
-149
-149
-151
-153
-154
-158
-156
-153
-154
-154
-155
-152
-152
-150
-149
-150
-152
-155
-157
-159
-164
-173
-169
-159
-155
-155
-155
-153
-158
-162
-161
-163
-170
-171
-171
-170
-168
-163
-163
-163
-164
-167
-166
-167
-167
-166
-164
-166
-162
-160
-164
-165
-167
-165
-165
-166
-164
-162
-165
-162
-160
-158
-159
-158
-160
-162
-164
-164
-165
-165
-162
-163
-160
-162
-162
-165
-163
-165
-163
-163
-163
-164
-161
-161
-161
-155
-156
-157
-154
-158
-160
-159
-157
-156
-151
-147
-143
-141
-141
-138
-139
-138
-139
-138
-136
-132
-126
-121
-109
-105
-104
-107
-111
-117
-123
-129
-134
-137
-134
-127
-121
-116
-112
-113
-111
-117
-123
-133
-145
-153
-157
-158
-161
-163
-163
-168
-171
-176
-178
-182
-185
-185
-188
-180
-182
-179
-180
-183
-183
-188
-184
-184
-184
-185
-181
-182
-181
-178
-179
-179
-177
-185
-185
-183
-185
-186
-184
-184
-183
-183
-192
-190
-187
-178
-161
-134
-102
-68
-35
-13
-7
-8
-10
6
39
82
120
141
119
44
-63
-183
-291
-358
-402
-423
-432
-445
-453
-458
-465
-469
-467
-467
-464
-461
-453
-444
-433
-412
-385
-351
-320
-288
-258
-237
-219
-209
-207
-204
-205
-203
-200
-199
-196
-193
-192
-189
-189
-186
-185
-185
-187
-188
-191
-192
-191
-194
-194
-192
-193
-190
-193
-197
-199
-204
-206
-211
-213
-214
-215
-213
-215
-218
-220
-220
-224
-229
-232
-237
-241
-240
-237
-237
-236
-236
-236
-241
-240
-242
-244
-243
-246
-245
-241
-242
-238
-234
-230
-229
-229
-223
-221
-224
-219
-212
-206
-201
-195
-189
-185
-184
-184
-180
-178
-174
-175
-173
-170
-163
-163
-161
-156
-156
-154
-154
-158
-154
-159
-155
-158
-153
-151
-151
-147
-152
-153
-157
-159
-156
-156
-157
-156
-153
-152
-152
-150
-154
-157
-164
-163
-165
-168
-167
-160
-165
-161
-159
-161
-163
-163
-164
-167
-167
-168
-167
-166
-162
-159
-158
-161
-160
-162
-164
-166
-170
-167
-165
-162
-160
-159
-160
-158
-157
-158
-159
-160
-160
-164
-163
-161
-158
-158
-156
-158
-159
-156
-158
-159
-157
-161
-158
-158
-152
-155
-152
-154
-153
-153
-153
-156
-158
-160
-155
-157
-154
-156
-153
-147
-146
-147
-148
-146
-147
-146
-147
-145
-138
-134
-131
-127
-126
-126
-125
-128
-126
-123
-119
-113
-105
-98
-93
-96
-102
-109
-111
-117
-120
-123
-122
-116
-105
-97
-95
-93
-96
-106
-117
-122
-130
-133
-137
-144
-145
-146
-145
-149
-150
-153
-156
-158
-158
-161
-160
-158
-158
-157
-154
-153
-155
-160
-161
-163
-161
-161
-160
-160
-158
-159
-156
-158
-156
-157
-158
-159
-158
-160
-163
-163
-162
-166
-163
-159
-142
-122
-92
-54
-15
14
40
49
44
38
43
57
89
125
153
155
121
43
-67
-182
-285
-354
-394
-408
-418
-425
-434
-443
-448
-454
-455
-456
-452
-450
-442
-436
-429
-419
-407
-386
-361
-325
-288
-256
-229
-209
-201
-188
-189
-186
-183
-183
-181
-181
-181
-177
-174
-169
-167
-170
-173
-174
-175
-176
-179
-181
-180
-177
-180
-176
-177
-178
-180
-183
-187
-189
-195
-197
-199
-199
-204
-204
-201
-205
-207
-211
-214
-220
-224
-229
-231
-234
-236
-235
-230
-230
-229
-230
-236
-235
-235
-232
-233
-232
-229
-222
-215
-217
-211
-212
-212
-208
-204
-200
-198
-190
-185
-181
-177
-174
-172
-170
-166
-164
-160
-158
-155
-153
-152
-149
-144
-145
-144
-146
-147
-147
-150
-149
-146
-143
-141
-141
-137
-137
-138
-138
-142
-146
-144
-144
-145
-145
-143
-145
-138
-139
-139
-144
-147
-148
-153
-150
-150
-150
-148
-148
-147
-148
-150
-151
-153
-154
-156
-157
-156
-152
-152
-152
-152
-151
-150
-150
-150
-152
-153
-155
-155
-155
-151
-150
-148
-145
-143
-148
-148
-150
-154
-153
-153
-151
-150
-151
-145
-147
-146
-145
-148
-147
-147
-150
-147
-144
-146
-144
-142
-146
-142
-142
-143
-145
-144
-146
-147
-144
-143
-142
-138
-140
-142
-141
-141
-138
-139
-138
-135
-130
-126
-123
-117
-117
-116
-118
-119
-117
-113
-110
-104
-93
-90
-92
-91
-95
-100
-105
-113
-116
-116
-113
-109
-99
-96
-92
-90
-91
-100
-110
-116
-125
-133
-134
-143
-140
-141
-143
-147
-149
-151
-154
-155
-155
-157
-159
-155
-156
-156
-154
-155
-155
-155
-154
-156
-159
-162
-165
-162
-162
-157
-157
-154
-153
-151
-152
-156
-154
-158
-162
-169
-169
-171
-167
-155
-133
-102
-64
-29
-2
9
8
3
6
25
66
108
150
174
164
108
19
-91
-193
-277
-332
-356
-372
-386
-392
-408
-422
-430
-436
-439
-440
-439
-433
-429
-423
-415
-403
-387
-366
-336
-306
-276
-249
-232
-210
-199
-192
-188
-185
-182
-182
-181
-177
-177
-179
-174
-174
-171
-168
-168
-171
-167
-169
-169
-173
-176
-176
-177
-181
-179
-179
-183
-183
-184
-189
-191
-197
-201
-204
-206
-207
-207
-207
-209
-211
-214
-218
-219
-219
-222
-227
-229
-227
-228
-227
-226
-226
-225
-228
-230
-234
-236
-231
-229
-227
-221
-218
-214
-209
-207
-208
-205
-204
-199
-196
-192
-186
-180
-175
-170
-164
-164
-160
-163
-157
-156
-158
-156
-151
-149
-148
-142
-138
-142
-144
-144
-146
-146
-147
-144
-148
-141
-141
-141
-139
-139
-141
-140
-142
-145
-147
-149
-144
-146
-143
-141
-143
-146
-148
-149
-154
-155
-159
-159
-156
-156
-154
-149
-151
-152
-152
-154
-155
-160
-159
-160
-162
-160
-156
-154
-151
-153
-151
-151
-154
-152
-157
-155
-150
-153
-151
-150
-146
-148
-151
-148
-150
-154
-155
-154
-149
-148
-145
-143
-145
-144
-145
-150
-153
-152
-158
-155
-153
-152
-149
-144
-145
-141
-145
-149
-154
-151
-154
-151
-146
-143
-139
-135
-130
-130
-128
-129
-127
-125
-126
-123
-124
-120
-109
-103
-98
-92
-96
-96
-101
-108
-114
-117
-122
-121
-122
-122
-118
-112
-107
-102
-103
-106
-112
-123
-128
-135
-138
-144
-146
-150
-154
-157
-161
-166
-169
-168
-169
-166
-165
-161
-159
-159
-163
-165
-168
-168
-170
-171
-172
-172
-170
-167
-168
-168
-164
-172
-175
-176
-176
-173
-169
-168
-166
-165
-169
-173
-172
-172
-161
-147
-119
-85
-53
-27
-7
-7
-10
-12
-6
18
54
101
134
142
118
51
-47
-153
-249
-320
-363
-386
-401
-411
-424
-435
-446
-453
-456
-453
-445
-441
-443
-441
-433
-428
-415
-390
-360
-325
-288
-260
-234
-217
-207
-201
-201
-198
-197
-193
-188
-185
-179
-175
-177
-177
-177
-181
-179
-180
-179
-179
-182
-184
-183
-182
-182
-184
-184
-189
-195
-194
-200
-201
-204
-205
-204
-209
-210
-212
-214
-219
-220
-224
-225
-228
-226
-225
-224
-225
-225
-230
-233
-232
-233
-240
-239
-241
-239
-232
-231
-227
-225
-222
-220
-217
-218
-212
-212
-209
-207
-195
-190
-188
-179
-177
-178
-173
-173
-169
-169
-168
-166
-165
-161
-157
-157
-153
-152
-153
-153
-152
-155
-156
-153
-152
-150
-148
-144
-144
-144
-151
-149
-153
-153
-153
-153
-151
-148
-145
-150
-149
-152
-152
-155
-155
-156
-158
-157
-155
-155
-156
-157
-158
-159
-159
-162
-164
-165
-164
-163
-162
-159
-160
-159
-159
-158
-157
-159
-161
-163
-162
-161
-161
-162
-161
-159
-157
-157
-159
-161
-163
-163
-161
-159
-157
-156
-154
-153
-151
-152
-156
-156
-159
-162
-161
-157
-156
-153
-154
-152
-155
-153
-155
-157
-158
-158
-157
-158
-156
-152
-151
-151
-150
-151
-153
-151
-150
-152
-148
-147
-143
-145
-137
-134
-132
-132
-131
-129
-129
-127
-121
-113
-107
-104
-103
-107
-112
-116
-125
-128
-129
-129
-124
-116
-111
-111
-104
-107
-115
-124
-135
-141
-151
-150
-157
-158
-159
-160
-162
-161
-163
-167
-168
-173
-175
-176
-177
-175
-172
-172
-169
-168
-171
-172
-172
-176
-179
-178
-178
-176
-174
-176
-172
-169
-172
-174
-174
-177
-180
-183
-186
-189
-185
-176
-156
-131
-101
-64
-29
-5
6
5
-2
-3
11
40
82
120
138
132
76
-17
-129
-236
-321
-374
-401
-416
-424
-430
-437
-446
-452
-458
-460
-458
-456
-450
-444
-431
-416
-397
-363
-331
-295
-265
-241
-225
-215
-210
-208
-203
-201
-199
-194
-193
-191
-195
-193
-197
-194
-194
-191
-193
-190
-191
-192
-192
-199
-203
-205
-206
-209
-206
-204
-208
-208
-208
-211
-213
-217
-219
-224
-228
-227
-232
-232
-233
-232
-233
-236
-239
-238
-244
-245
-247
-250
-250
-250
-247
-244
-243
-241
-240
-241
-243
-242
-239
-236
-231
-225
-219
-216
-208
-205
-199
-197
-197
-192
-190
-186
-182
-178
-175
-173
-170
-164
-167
-165
-162
-164
-165
-159
-160
-156
-155
-152
-152
-151
-151
-156
-160
-160
-159
-159
-159
-155
-155
-151
-154
-155
-158
-157
-161
-164
-167
-164
-164
-161
-161
-160
-158
-157
-161
-163
-166
-167
-169
-170
-170
-169
-167
-165
-164
-166
-162
-164
-165
-166
-165
-165
-167
-167
-165
-161
-161
-160
-163
-164
-166
-166
-165
-167
-169
-167
-165
-161
-157
-157
-157
-159
-160
-162
-162
-162
-160
-159
-158
-153
-152
-153
-153
-153
-157
-160
-160
-161
-159
-160
-159
-156
-155
-155
-153
-154
-158
-151
-149
-147
-141
-140
-135
-135
-128
-128
-127
-129
-131
-128
-121
-115
-109
-104
-102
-100
-102
-106
-115
-123
-128
-131
-132
-129
-119
-112
-105
-100
-100
-107
-114
-124
-133
-142
-148
-153
-156
-159
-159
-158
-160
-163
-165
-169
-171
-174
-174
-173
-172
-170
-170
-169
-168
-169
-170
-173
-174
-175
-176
-176
-177
-175
-174
-170
-169
-170
-173
-176
-174
-178
-175
-181
-181
-182
-181
-181
-173
-162
-139
-113
-85
-54
-29
-16
-15
-18
-16
-1
32
78
122
146
142
91
-3
-120
-232
-319
-373
-401
-416
-425
-433
-442
-452
-459
-466
-465
-464
-461
-456
-452
-441
-429
-409
-385
-354
-319
-284
-255
-233
-215
-207
-201
-197
-196
-191
-190
-188
-188
-190
-188
-187
-186
-182
-182
-177
-178
-181
-181
-183
-185
-190
-195
-193
-191
-191
-190
-191
-195
-197
-202
-203
-209
-215
-217
-220
-221
-222
-223
-223
-223
-225
-227
-228
-235
-235
-241
-241
-238
-238
-237
-238
-237
-237
-241
-241
-246
-243
-241
-241
-238
-232
-229
-229
-223
-224
-221
-219
-216
-209
-202
-197
-191
-184
-181
-176
-178
-175
-174
-177
-171
-170
-168
-168
-170
-163
-159
-155
-155
-155
-155
-158
-161
-161
-158
-159
-159
-154
-156
-155
-152
-152
-156
-157
-161
-160
-161
-160
-160
-162
-158
-157
-158
-160
-162
-164
-167
-169
-169
-169
-167
-166
-167
-167
-166
-166
-168
-170
-171
-171
-174
-173
-170
-166
-165
-166
-170
-169
-165
-168
-172
-170
-171
-167
-168
-164
-169
-165
-167
-167
-168
-164
-165
-169
-172
-168
-165
-166
-162
-162
-160
-161
-164
-165
-167
-170
-169
-169
-165
-163
-166
-163
-165
-161
-167
-165
-163
-163
-166
-166
-164
-156
-154
-149
-148
-146
-144
-144
-144
-148
-144
-144
-138
-131
-125
-114
-112
-113
-115
-121
-125
-132
-136
-140
-141
-139
-134
-128
-124
-118
-118
-121
-129
-140
-152
-159
-164
-166
-169
-169
-173
-175
-178
-183
-185
-187
-187
-183
-185
-181
-183
-181
-182
-185
-185
-184
-188
-196
-193
-191
-190
-189
-189
-185
-185
-187
-188
-189
-189
-190
-191
-192
-192
-192
-191
-190
-194
-193
-188
-169
-141
-111
-77
-48
-30
-26
-31
-25
-5
30
72
115
135
122
70
-23
-132
-241
-327
-379
-412
-431
-441
-451
-461
-468
-476
-479
-475
-471
-467
-462
-455
-448
-435
-415
-389
-355
-319
-286
-257
-236
-222
-213
-212
-212
-210
-210
-208
-208
-211
-206
-204
-198
-195
-195
-195
-199
-200
-201
-205
-203
-205
-208
-204
-204
-206
-205
-205
-207
-211
-214
-215
-217
-223
-226
-231
-232
-234
-234
-237
-237
-240
-243
-246
-249
-251
-252
-252
-251
-255
-253
-253
-257
-258
-260
-262
-259
-261
-259
-257
-254
-250
-246
-247
-244
-244
-238
-240
-233
-230
-224
-221
-213
-207
-203
-200
-199
-195
-198
-196
-195
-194
-195
-190
-188
-184
-180
-178
-178
-177
-178
-181
-179
-183
-183
-180
-182
-182
-172
-174
-175
-177
-179
-181
-181
-185
-183
-183
-181
-178
-175
-175
-176
-181
-186
-188
-189
-190
-190
-186
-188
-185
-184
-186
-187
-186
-190
-191
-191
-193
-191
-191
-187
-187
-187
-187
-186
-188
-190
-191
-192
-192
-192
-188
-188
-186
-180
-183
-182
-187
-187
-190
-191
-190
-187
-186
-186
-183
-182
-185
-184
-183
-183
-184
-184
-188
-187
-183
-184
-182
-180
-178
-183
-182
-183
-187
-186
-184
-186
-184
-182
-179
-176
-174
-171
-172
-172
-168
-168
-170
-167
-165
-164
-159
-154
-148
-146
-139
-135
-132
-132
-136
-143
-145
-149
-152
-153
-153
-149
-142
-137
-133
-138
-144
-154
-160
-168
-173
-178
-179
-182
-186
-188
-195
-198
-203
-204
-205
-200
-200
-198
-201
-202
-197
-201
-205
-207
-209
-209
-209
-206
-204
-202
-203
-204
-202
-206
-208
-208
-210
-211
-209
-209
-205
-204
-208
-208
-210
-216
-211
-198
-177
-143
-104
-71
-43
-26
-26
-37
-35
-21
10
50
88
102
79
1
-110
-230
-340
-416
-460
-481
-491
-492
-496
-493
-491
-491
-489
-489
-485
-480
-469
-456
-432
-405
-373
-338
-307
-280
-262
-247
-240
-236
-236
-234
-234
-232
-230
-229
-226
-222
-220
-217
-217
-217
-221
-224
-225
-227
-226
-231
-231
-230
-229
-230
-233
-235
-238
-242
-245
-249
-254
-256
-261
-262
-260
-259
-263
-267
-269
-271
-272
-274
-278
-280
-279
-279
-278
-280
-279
-283
-283
-284
-286
-288
-286
-282
-279
-275
-271
-270
-267
-262
-258
-257
-257
-252
-247
-241
-237
-229
-224
-221
-217
-217
-213
-213
-217
-215
-212
-212
-209
-205
-202
-198
-199
-200
-201
-204
-205
-202
-205
-204
-203
-201
-196
-196
-197
-198
-199
-200
-205
-204
-208
-211
-211
-210
-208
-206
-205
-205
-206
-207
-209
-210
-214
-212
-212
-210
-213
-210
-212
-210
-213
-213
-213
-216
-217
-218
-216
-213
-211
-211
-212
-213
-212
-212
-212
-216
-217
-218
-214
-212
-211
-207
-207
-209
-209
-211
-212
-214
-214
-215
-212
-209
-209
-207
-209
-210
-213
-216
-214
-212
-213
-216
-210
-208
-208
-205
-208
-208
-209
-206
-208
-208
-205
-200
-197
-192
-188
-183
-183
-185
-184
-184
-185
-181
-176
-166
-159
-150
-150
-151
-157
-164
-170
-178
-182
-188
-185
-179
-169
-160
-154
-154
-157
-167
-179
-191
-201
-203
-212
-214
-215
-211
-213
-215
-218
-219
-221
-228
-227
-225
-225
-223
-226
-224
-225
-221
-225
-227
-225
-226
-228
-225
-226
-227
-226
-223
-221
-219
-220
-223
-220
-227
-228
-227
-233
-233
-234
-234
-228
-216
-197
-173
-140
-115
-87
-68
-63
-66
-62
-50
-18
32
75
96
81
17
-87
-211
-321
-409
-456
-478
-489
-490
-493
-499
-504
-507
-508
-508
-507
-505
-501
-493
-484
-469
-455
-431
-403
-373
-342
-316
-297
-280
-264
-256
-248
-244
-244
-243
-241
-240
-236
-239
-235
-234
-235
-229
-226
-225
-225
-226
-230
-230
-234
-236
-239
-239
-242
-241
-242
-240
-245
-246
-243
-248
-249
-254
-261
-263
-262
-262
-262
-264
-264
-267
-269
-274
-276
-278
-281
-280
-281
-281
-280
-279
-282
-283
-282
-284
-285
-286
-288
-286
-284
-276
-275
-275
-270
-266
-263
-261
-260
-257
-253
-251
-245
-236
-236
-231
-225
-221
-213
-217
-215
-213
-213
-215
-215
-210
-205
-203
-199
-196
-195
-200
-198
-199
-201
-198
-195
-197
-195
-195
-195
-194
-196
-196
-198
-200
-199
-199
-196
-196
-198
-196
-196
-197
-201
-203
-203
-209
-209
-210
-208
-206
-208
-205
-208
-207
-208
-210
-212
-213
-214
-215
-216
-210
-207
-208
-208
-209
-207
-210
-215
-216
-214
-214
-214
-212
-209
-208
-207
-209
-209
-214
-212
-218
-214
-215
-215
-209
-208
-206
-205
-208
-210
-211
-213
-213
-213
-213
-208
-208
-208
-207
-208
-204
-207
-209
-213
-213
-213
-211
-208
-206
-203
-201
-196
-194
-193
-192
-193
-193
-192
-191
-191
-188
-183
-177
-171
-164
-160
-160
-162
-168
-175
-183
-185
-190
-187
-184
-178
-173
-167
-164
-167
-171
-182
-188
-194
-199
-204
-207
-212
-212
-215
-220
-221
-227
-231
-231
-228
-228
-228
-228
-228
-231
-229
-233
-237
-237
-236
-238
-234
-232
-229
-229
-227
-228
-228
-232
-233
-230
-234
-233
-232
-228
-228
-225
-228
-230
-233
-232
-227
-210
-185
-148
-111
-75
-57
-47
-50
-50
-37
-9
28
64
80
57
-6
-106
-215
-314
-382
-426
-447
-458
-468
-478
-487
-493
-500
-500
-494
-492
-493
-491
-488
-479
-471
-460
-437
-407
-377
-344
-315
-292
-275
-262
-257
-255
-253
-254
-251
-247
-243
-240
-238
-237
-235
-232
-235
-232
-235
-237
-239
-241
-240
-241
-238
-240
-239
-241
-242
-249
-255
-262
-263
-266
-266
-261
-266
-265
-267
-268
-271
-275
-279
-281
-284
-283
-285
-286
-287
-287
-286
-289
-289
-292
-293
-295
-295
-294
-290
-289
-289
-285
-280
-278
-275
-274
-272
-271
-268
-261
-258
-254
-247
-244
-236
-233
-232
-231
-230
-229
-225
-226
-224
-219
-219
-215
-212
-211
-208
-207
-211
-207
-209
-210
-207
-205
-206
-204
-203
-203
-202
-205
-206
-207
-208
-208
-209
-204
-205
-204
-202
-206
-205
-206
-210
-214
-214
-217
-216
-215
-213
-212
-210
-208
-211
-213
-216
-217
-217
-218
-215
-219
-215
-214
-213
-215
-216
-216
-213
-215
-215
-214
-215
-214
-213
-209
-210
-208
-209
-211
-213
-214
-216
-211
-214
-211
-209
-208
-208
-204
-207
-208
-209
-210
-209
-208
-206
-206
-205
-204
-202
-201
-202
-205
-205
-209
-210
-205
-202
-197
-194
-191
-185
-183
-181
-181
-179
-178
-178
-176
-171
-166
-161
-152
-145
-142
-143
-146
-152
-159
-167
-173
-174
-169
-164
-154
-146
-143
-142
-149
-159
-172
-177
-182
-187
-191
-191
-191
-194
-197
-196
-207
-206
-206
-208
-209
-208
-205
-208
-206
-200
-201
-202
-208
-209
-211
-210
-211
-208
-207
-208
-202
-203
-202
-202
-202
-202
-204
-209
-210
-214
-210
-203
-193
-173
-146
-110
-75
-49
-38
-38
-42
-35
-8
30
76
110
118
86
11
-99
-213
-312
-383
-421
-439
-448
-454
-459
-467
-475
-478
-478
-479
-481
-478
-469
-463
-455
-440
-421
-403
-373
-341
-313
-286
-262
-248
-236
-228
-225
-220
-216
-211
-212
-207
-208
-206
-207
-207
-206
-207
-207
-205
-202
-202
-200
-203
-206
-209
-212
-214
-216
-213
-216
-217
-218
-222
-223
-229
-229
-232
-237
-239
-240
-242
-243
-241
-244
-244
-249
-251
-253
-255
-257
-258
-260
-258
-257
-253
-252
-252
-254
-253
-254
-254
-254
-250
-248
-244
-238
-234
-229
-226
-224
-224
-221
-217
-216
-212
-208
-206
-199
-197
-193
-189
-187
-184
-185
-185
-184
-182
-181
-179
-176
-174
-176
-176
-173
-174
-177
-175
-177
-181
-177
-176
-175
-174
-174
-174
-174
-175
-176
-179
-180
-180
-179
-179
-178
-175
-176
-176
-178
-179
-181
-184
-187
-184
-186
-187
-184
-183
-180
-182
-182
-183
-184
-185
-185
-186
-186
-184
-181
-180
-177
-179
-180
-181
-181
-182
-184
-185
-182
-181
-182
-180
-178
-179
-181
-181
-182
-184
-182
-184
-182
-181
-180
-178
-175
-177
-175
-176
-177
-179
-180
-181
-179
-179
-178
-176
-176
-174
-173
-176
-179
-179
-175
-174
-172
-167
-162
-159
-153
-147
-147
-145
-147
-141
-141
-140
-132
-125
-117
-110
-113
-117
-118
-128
-131
-137
-142
-139
-137
-128
-121
-116
-113
-109
-117
-124
-134
-146
-156
-155
-157
-157
-160
-163
-162
-165
-169
-175
-175
-177
-179
-178
-179
-177
-174
-173
-171
-174
-175
-176
-175
-175
-176
-178
-179
-178
-176
-171
-173
-172
-175
-174
-173
-176
-174
-176
-179
-181
-179
-178
-168
-154
-129
-98
-67
-40
-19
-11
-15
-16
-10
11
48
93
131
148
131
72
-26
-140
-245
-323
-375
-393
-405
-413
-423
-431
-443
-448
-450
-447
-445
-438
-435
-430
-420
-411
-395
-379
-351
-322
-290
-259
-236
-214
-201
-193
-187
-187
-185
-184
-179
-180
-176
-176
-178
-173
-171
-165
-167
-168
-168
-171
-172
-175
-175
-177
-176
-175
-174
-179
-179
-178
-182
-186
-190
-194
-198
-199
-200
-201
-200
-200
-203
-205
-208
-211
-215
-217
-218
-222
-220
-220
-219
-217
-218
-221
-219
-219
-223
-222
-223
-223
-224
-223
-220
-217
-211
-210
-210
-208
-207
-205
-203
-199
-194
-188
-183
-176
-171
-172
-164
-164
-163
-162
-161
-161
-157
-153
-149
-146
-143
-142
-144
-144
-144
-142
-142
-143
-143
-139
-140
-138
-138
-132
-133
-134
-137
-137
-140
-140
-141
-139
-136
-136
-135
-138
-140
-142
-142
-145
-144
-143
-144
-144
-143
-142
-144
-147
-147
-152
-150
-148
-147
-151
-150
-148
-149
-146
-146
-145
-145
-148
-148
-150
-148
-147
-147
-146
-147
-147
-146
-146
-143
-144
-143
-145
-147
-147
-148
-147
-145
-144
-143
-142
-143
-143
-143
-146
-146
-145
-146
-141
-140
-140
-142
-139
-140
-143
-144
-142
-145
-146
-143
-145
-143
-138
-135
-130
-130
-129
-130
-130
-130
-130
-129
-122
-120
-117
-114
-111
-110
-105
-104
-98
-96
-95
-90
-94
-97
-102
-106
-113
-111
-115
-111
-110
-104
-99
-94
-94
-98
-102
-109
-117
-125
-133
-137
-143
-144
-149
-153
-154
-155
-156
-156
-156
-155
-157
-159
-160
-163
-163
-166
-164
-162
-162
-161
-162
-161
-161
-161
-164
-162
-166
-164
-163
-164
-162
-158
-157
-153
-161
-162
-168
-172
-171
-171
-166
-149
-125
-95
-62
-32
-6
12
12
5
3
14
41
82
122
147
145
100
15
-101
-211
-304
-369
-401
-414
-419
-422
-426
-438
-445
-452
-450
-451
-449
-448
-446
-436
-432
-417
-398
-374
-347
-317
-283
-256
-236
-218
-207
-200
-195
-190
-186
-180
-177
-178
-178
-179
-181
-180
-182
-179
-179
-176
-175
-176
-180
-182
-186
-188
-188
-191
-189
-191
-189
-188
-186
-193
-196
-199
-204
-213
-216
-219
-217
-217
-220
-220
-214
-219
-222
-225
-233
-231
-233
-236
-232
-231
-230
-226
-229
-230
-230
-229
-229
-234
-233
-227
-225
-221
-216
-211
-205
-203
-200
-198
-196
-194
-188
-184
-181
-175
-168
-166
-166
-164
-161
-158
-160
-157
-155
-154
-155
-154
-148
-144
-143
-145
-146
-153
-151
-151
-148
-148
-146
-147
-144
-141
-144
-141
-146
-147
-146
-153
-150
-151
-149
-150
-149
-153
-148
-149
-150
-152
-153
-153
-156
-156
-154
-153
-155
-155
-153
-155
-156
-157
-156
-158
-159
-157
-157
-157
-155
-154
-152
-153
-154
-155
-158
-161
-158
-161
-157
-153
-152
-147
-148
-150
-151
-151
-153
-154
-156
-158
-155
-154
-152
-149
-153
-151
-153
-153
-150
-153
-154
-154
-154
-152
-150
-147
-146
-147
-147
-144
-146
-146
-145
-143
-138
-137
-133
-129
-124
-123
-122
-125
-126
-124
-119
-113
-107
-103
-99
-95
-97
-104
-110
-117
-123
-124
-121
-118
-111
-104
-100
-99
-103
-111
-126
-133
-145
-147
-149
-153
-155
-159
-159
-160
-159
-159
-160
-161
-164
-167
-170
-169
-169
-170
-168
-167
-165
-165
-163
-165
-164
-169
-168
-170
-170
-169
-166
-162
-162
-163
-164
-163
-166
-172
-172
-174
-176
-170
-153
-129
-96
-63
-29
-5
-1
-8
-11
-9
14
52
99
137
152
127
52
-55
-168
-271
-343
-386
-404
-411
-419
-424
-430
-435
-441
-440
-439
-437
-436
-436
-429
-415
-398
-375
-343
-309
-276
-253
-228
-212
-200
-196
-190
-184
-183
-179
-176
-179
-176
-175
-176
-176
-175
-176
-176
-176
-172
-172
-170
-172
-173
-178
-182
-181
-185
-187
-188
-186
-189
-191
-190
-197
-199
-202
-206
-208
-210
-210
-216
-215
-216
-214
-213
-217
-219
-222
-222
-226
-231
-234
-233
-231
-229
-228
-226
-226
-226
-225
-226
-227
-226
-223
-216
-215
-209
-203
-197
-196
-194
-192
-187
-185
-181
-178
-171
-167
-161
-158
-155
-155
-156
-154
-153
-154
-150
-152
-149
-146
-144
-142
-144
-142
-144
-145
-147
-151
-151
-150
-147
-146
-138
-136
-136
-140
-142
-147
-142
-145
-145
-148
-146
-147
-144
-144
-146
-147
-146
-147
-148
-152
-153
-154
-152
-154
-155
-152
-151
-152
-152
-149
-153
-153
-155
-156
-152
-151
-152
-147
-144
-151
-150
-152
-152
-156
-157
-156
-156
-149
-142
-142
-137
-140
-143
-145
-145
-144
-146
-147
-144
-145
-144
-144
-142
-146
-147
-145
-144
-146
-146
-147
-145
-142
-138
-141
-134
-134
-136
-136
-138
-142
-139
-135
-133
-128
-127
-120
-118
-119
-117
-113
-115
-115
-109
-108
-100
-94
-89
-89
-89
-94
-100
-107
-110
-115
-116
-114
-110
-102
-93
-86
-82
-89
-98
-108
-117
-124
-134
-135
-138
-141
-140
-141
-142
-145
-145
-150
-152
-153
-158
-157
-158
-154
-150
-149
-147
-150
-153
-154
-154
-154
-154
-152
-152
-154
-151
-153
-150
-150
-152
-152
-149
-153
-155
-158
-160
-163
-162
-155
-140
-122
-92
-61
-26
5
24
27
23
23
31
54
92
126
143
133
79
-16
-123
-226
-305
-354
-376
-391
-396
-403
-406
-416
-421
-427
-422
-424
-424
-416
-405
-392
-372
-346
-317
-286
-257
-231
-211
-196
-189
-182
-176
-172
-167
-167
-163
-165
-164
-165
-169
-166
-166
-167
-164
-164
-162
-159
-163
-160
-166
-169
-172
-177
-177
-178
-175
-174
-177
-175
-182
-187
-188
-191
-197
-198
-202
-202
-199
-200
-199
-201
-205
-208
-209
-213
-217
-218
-220
-222
-219
-217
-220
-220
-217
-218
-219
-220
-221
-223
-225
-220
-214
-209
-207
-205
-199
-195
-191
-185
-185
-181
-179
-171
-168
-164
-157
-154
-152
-150
-153
-149
-148
-150
-147
-143
-143
-141
-135
-132
-133
-131
-134
-135
-137
-140
-141
-140
-138
-135
-132
-131
-129
-131
-135
-136
-135
-133
-132
-133
-132
-132
-132
-132
-135
-135
-137
-139
-140
-139
-145
-143
-141
-142
-138
-138
-141
-144
-143
-144
-150
-153
-150
-145
-143
-145
-143
-141
-141
-143
-144
-147
-148
-148
-149
-147
-143
-141
-137
-138
-140
-145
-144
-144
-145
-147
-144
-145
-142
-139
-138
-140
-138
-140
-140
-141
-141
-145
-146
-145
-140
-142
-138
-140
-137
-136
-139
-138
-138
-139
-139
-135
-131
-128
-123
-119
-119
-118
-118
-119
-118
-123
-119
-112
-106
-100
-91
-85
-83
-88
-92
-94
-105
-109
-114
-114
-114
-110
-105
-101
-92
-90
-92
-97
-104
-114
-123
-126
-132
-132
-131
-135
-137
-140
-144
-148
-150
-154
-155
-154
-153
-153
-150
-153
-155
-157
-157
-157
-157
-161
-158
-159
-157
-156
-153
-155
-156
-157
-157
-158
-163
-163
-158
-158
-155
-154
-154
-155
-158
-162
-166
-167
-164
-155
-133
-112
-78
-49
-23
-10
-5
-10
-14
-3
17
54
95
124
125
83
6
-100
-204
-288
-347
-380
-399
-408
-413
-414
-417
-416
-416
-416
-418
-420
-419
-418
-410
-399
-385
-358
-331
-299
-271
-245
-227
-213
-206
-204
-198
-193
-190
-184
-179
-173
-170
-171
-169
-168
-170
-172
-169
-170
-173
-170
-169
-168
-169
-172
-175
-175
-180
-182
-183
-185
-186
-187
-189
-190
-191
-194
-198
-196
-199
-201
-205
-208
-211
-208
-212
-210
-210
-212
-215
-216
-220
-224
-226
-228
-228
-226
-224
-220
-219
-220
-218
-216
-216
-215
-212
-210
-210
-205
-199
-194
-190
-186
-181
-178
-173
-172
-175
-170
-166
-165
-163
-159
-154
-154
-152
-149
-150
-149
-151
-150
-151
-150
-143
-141
-141
-138
-140
-143
-143
-147
-150
-148
-148
-148
-144
-144
-143
-145
-142
-146
-148
-155
-154
-153
-154
-154
-151
-150
-146
-149
-150
-148
-154
-156
-159
-160
-158
-156
-153
-155
-153
-152
-150
-154
-155
-159
-162
-156
-156
-156
-155
-153
-153
-152
-153
-154
-154
-155
-155
-157
-155
-154
-153
-153
-150
-153
-150
-151
-153
-156
-157
-155
-155
-155
-151
-147
-145
-144
-146
-146
-147
-152
-151
-157
-159
-150
-147
-144
-141
-141
-138
-141
-142
-142
-142
-141
-139
-134
-129
-132
-127
-122
-125
-117
-112
-110
-109
-112
-114
-117
-123
-126
-122
-123
-120
-119
-115
-110
-109
-112
-114
-119
-127
-134
-137
-142
-145
-152
-155
-158
-163
-165
-164
-167
-165
-163
-161
-163
-163
-164
-170
-173
-170
-175
-173
-171
-166
-165
-163
-162
-163
-167
-168
-168
-169
-170
-171
-165
-165
-163
-162
-164
-166
-165
-168
-163
-157
-140
-114
-80
-43
-13
2
7
1
2
13
39
72
103
108
75
4
-95
-190
-277
-339
-372
-394
-404
-411
-415
-419
-422
-424
-423
-420
-419
-420
-419
-416
-410
-399
-387
-365
-345
-314
-279
-252
-228
-212
-201
-198
-191
-195
-191
-191
-189
-184
-179
-176
-174
-175
-176
-175
-180
-178
-180
-178
-182
-180
-178
-177
-175
-175
-176
-180
-185
-189
-194
-195
-194
-194
-194
-195
-197
-199
-202
-206
-212
-213
-217
-218
-219
-221
-220
-219
-220
-220
-222
-226
-229
-229
-230
-233
-232
-231
-233
-231
-229
-227
-225
-221
-221
-220
-218
-216
-209
-204
-198
-194
-190
-186
-181
-181
-179
-179
-174
-169
-167
-166
-158
-156
-157
-153
-155
-154
-151
-153
-153
-150
-151
-144
-145
-149
-143
-144
-145
-144
-147
-150
-149
-148
-149
-148
-145
-140
-139
-139
-142
-144
-147
-149
-149
-150
-150
-151
-148
-150
-148
-149
-151
-153
-155
-155
-154
-160
-154
-153
-154
-154
-153
-153
-154
-155
-154
-159
-157
-157
-155
-155
-152
-153
-149
-148
-149
-151
-151
-155
-154
-153
-156
-152
-147
-147
-147
-149
-147
-152
-151
-156
-156
-150
-150
-150
-147
-145
-144
-142
-142
-146
-146
-148
-153
-149
-147
-147
-146
-143
-138
-136
-136
-134
-135
-133
-132
-128
-127
-124
-121
-116
-116
-109
-103
-102
-100
-100
-99
-104
-105
-109
-112
-112
-114
-114
-111
-108
-104
-105
-102
-102
-106
-108
-116
-121
-129
-129
-133
-138
-140
-147
-154
-158
-156
-158
-156
-152
-154
-152
-154
-156
-155
-160
-159
-163
-160
-157
-158
-156
-157
-156
-156
-157
-157
-157
-160
-164
-162
-161
-155
-154
-152
-153
-153
-157
-160
-162
-168
-162
-150
-127
-98
-69
-38
-18
-9
-13
-11
-1
28
66
98
120
108
56
-26
-124
-215
-285
-331
-360
-375
-390
-396
-402
-409
-412
-410
-414
-414
-412
-411
-407
-399
-386
-366
-344
-315
-285
-258
-234
-216
-204
-194
-188
-186
-181
-180
-173
-169
-167
-167
-163
-161
-162
-162
-166
-167
-165
-164
-164
-163
-161
-162
-165
-165
-168
-171
-174
-177
-179
-179
-182
-180
-180
-180
-185
-189
-193
-198
-200
-203
-203
-204
-206
-206
-202
-206
-207
-208
-212
-215
-217
-216
-215
-211
-214
-213
-209
-206
-207
-204
-203
-200
-202
-197
-193
-193
-188
-187
-179
-172
-168
-166
-165
-164
-160
-157
-155
-152
-151
-145
-143
-138
-135
-135
-135
-134
-136
-135
-133
-131
-129
-128
-125
-124
-126
-126
-129
-131
-133
-133
-134
-136
-132
-131
-130
-128
-129
-129
-135
-136
-140
-140
-140
-136
-137
-136
-134
-138
-133
-135
-136
-139
-141
-143
-142
-141
-140
-139
-139
-138
-140
-143
-143
-142
-146
-142
-144
-140
-140
-137
-139
-135
-136
-140
-140
-143
-143
-144
-144
-142
-142
-139
-140
-138
-139
-138
-141
-145
-144
-147
-147
-143
-142
-142
-138
-136
-133
-135
-139
-139
-140
-141
-140
-143
-140
-139
-137
-134
-131
-128
-125
-126
-125
-124
-123
-121
-118
-117
-114
-111
-106
-100
-99
-95
-95
-96
-101
-108
-109
-110
-111
-109
-110
-109
-103
-103
-102
-100
-107
-108
-113
-117
-125
-126
-128
-134
-133
-142
-145
-151
-157
-155
-150
-149
-149
-150
-152
-151
-155
-157
-157
-161
-161
-161
-160
-156
-158
-160
-159
-156
-159
-159
-162
-162
-160
-162
-160
-157
-159
-156
-156
-161
-163
-164
-161
-155
-139
-114
-88
-55
-20
4
13
15
11
13
23
46
72
100
105
89
40
-41
-139
-225
-297
-347
-377
-398
-406
-413
-419
-426
-428
-431
-426
-424
-426
-426
-426
-423
-417
-407
-393
-372
-352
-319
-292
-261
-242
-224
-213
-201
-197
-195
-192
-188
-182
-178
-176
-173
-173
-171
-174
-175
-177
-176
-173
-170
-171
-170
-171
-172
-175
-178
-180
-186
-189
-186
-191
-187
-187
-189
-191
-195
-201
-203
-205
-213
-215
-213
-212
-215
-217
-221
-219
-219
-221
-223
-224
-229
-231
-233
-232
-227
-225
-226
-228
-228
-226
-225
-226
-225
-222
-217
-212
-208
-201
-199
-195
-189
-188
-184
-182
-178
-176
-173
-166
-162
-158
-154
-152
-153
-152
-151
-151
-151
-151
-149
-148
-145
-144
-141
-140
-139
-139
-140
-141
-145
-144
-143
-141
-139
-139
-138
-142
-136
-140
-141
-144
-147
-147
-144
-145
-144
-143
-144
-143
-144
-146
-147
-149
-149
-151
-150
-149
-149
-146
-147
-145
-147
-147
-148
-148
-150
-150
-149
-147
-146
-144
-142
-144
-142
-143
-145
-146
-147
-148
-143
-143
-145
-143
-138
-141
-145
-141
-146
-148
-144
-147
-145
-143
-141
-141
-137
-138
-137
-140
-141
-140
-141
-142
-140
-139
-137
-134
-131
-134
-129
-130
-131
-130
-128
-128
-122
-118
-116
-111
-104
-99
-97
-95
-94
-98
-101
-108
-112
-115
-115
-116
-114
-110
-108
-102
-98
-99
-103
-113
-118
-127
-132
-132
-136
-138
-143
-146
-148
-155
-159
-158
-157
-157
-158
-157
-156
-158
-154
-154
-159
-162
-160
-160
-164
-163
-160
-161
-158
-157
-160
-159
-159
-162
-163
-166
-163
-162
-160
-165
-165
-169
-170
-164
-151
-126
-98
-67
-35
-12
-8
-6
-6
7
35
73
108
129
125
84
10
-87
-186
-260
-313
-344
-365
-381
-393
-404
-412
-420
-422
-421
-419
-413
-410
-411
-407
-401
-389
-375
-352
-321
-289
-257
-232
-213
-200
-194
-188
-190
-185
-184
-184
-183
-181
-177
-174
-174
-173
-172
-173
-175
-178
-178
-179
-181
-182
-180
-179
-181
-183
-183
-187
-190
-194
-197
-201
-203
-203
-204
-204
-205
-209
-211
-212
-216
-219
-221
-229
-228
-229
-231
-230
-230
-226
-228
-231
-233
-233
-232
-236
-235
-233
-233
-229
-226
-225
-223
-218
-214
-214
-208
-205
-202
-197
-188
-191
-185
-178
-176
-171
-169
-169
-170
-165
-164
-160
-158
-155
-151
-147
-147
-146
-148
-150
-150
-152
-151
-152
-152
-150
-145
-143
-144
-145
-148
-149
-152
-153
-156
-156
-153
-154
-152
-149
-152
-151
-156
-158
-160
-162
-166
-157
-159
-160
-156
-157
-155
-158
-159
-161
-166
-161
-165
-167
-166
-164
-161
-154
-158
-160
-160
-164
-166
-163
-167
-167
-165
-160
-157
-157
-157
-158
-162
-163
-165
-165
-164
-163
-163
-160
-155
-152
-155
-156
-159
-157
-159
-159
-160
-160
-156
-157
-154
-155
-153
-153
-154
-153
-150
-149
-146
-145
-142
-141
-135
-132
-134
-130
-129
-126
-124
-116
-114
-110
-108
-113
-118
-119
-125
-130
-134
-136
-132
-127
-121
-114
-114
-112
-117
-123
-132
-140
-150
-155
-159
-162
-163
-163
-163
-166
-165
-164
-166
-168
-168
-172
-174
-178
-174
-174
-173
-174
-172
-168
-169
-172
-173
-176
-175
-174
-175
-177
-174
-175
-177
-172
-172
-173
-174
-177
-181
-182
-186
-182
-173
-158
-133
-104
-74
-50
-36
-35
-40
-41
-32
-7
34
83
117
133
112
50
-42
-147
-242
-316
-358
-382
-392
-401
-409
-416
-424
-432
-433
-435
-434
-437
-434
-431
-421
-411
-397
-377
-354
-318
-289
-265
-244
-227
-213
-205
-199
-194
-193
-187
-184
-184
-182
-182
-185
-184
-182
-183
-178
-180
-177
-175
-179
-180
-182
-184
-185
-186
-189
-191
-191
-190
-192
-191
-196
-199
-201
-203
-205
-209
-213
-213
-214
-217
-218
-216
-217
-221
-224
-225
-229
-234
-235
-233
-230
-230
-229
-228
-228
-229
-229
-231
-234
-227
-223
-225
-220
-213
-213
-206
-203
-199
-198
-197
-196
-192
-188
-183
-177
-175
-169
-167
-168
-164
-162
-162
-160
-163
-162
-159
-155
-154
-148
-147
-148
-149
-147
-153
-155
-155
-151
-156
-149
-149
-149
-146
-150
-151
-152
-157
-159
-155
-156
-154
-155
-157
-154
-155
-156
-157
-158
-158
-160
-161
-164
-163
-164
-162
-160
-157
-158
-158
-162
-164
-166
-165
-165
-163
-164
-159
-158
-157
-159
-158
-158
-162
-161
-163
-165
-162
-160
-158
-155
-152
-154
-157
-159
-159
-162
-159
-161
-161
-158
-158
-157
-153
-154
-155
-155
-156
-156
-155
-158
-158
-157
-156
-152
-151
-150
-149
-149
-150
-149
-151
-147
-143
-139
-137
-136
-137
-134
-132
-131
-131
-127
-124
-123
-118
-114
-113
-111
-115
-121
-128
-132
-132
-132
-125
-122
-115
-108
-109
-110
-116
-124
-133
-142
-150
-152
-155
-158
-162
-165
-165
-166
-166
-166
-168
-169
-170
-173
-173
-175
-174
-172
-173
-175
-171
-171
-171
-173
-176
-178
-179
-182
-179
-178
-175
-173
-170
-171
-171
-172
-172
-175
-178
-179
-176
-168
-156
-136
-106
-81
-53
-28
-19
-15
-24
-30
-24
-5
32
74
106
113
90
22
-74
-181
-275
-343
-382
-404
-413
-415
-420
-428
-436
-441
-443
-440
-442
-446
-443
-435
-428
-412
-393
-374
-348
-316
-286
-261
-244
-229
-215
-207
-200
-197
-197
-195
-192
-190
-188
-187
-185
-186
-185
-185
-185
-180
-177
-178
-181
-182
-184
-189
-192
-193
-196
-197
-198
-197
-195
-198
-200
-204
-211
-212
-214
-217
-222
-220
-219
-221
-221
-225
-225
-225
-225
-229
-230
-234
-233
-233
-234
-230
-230
-232
-231
-231
-231
-232
-232
-233
-232
-229
-225
-221
-217
-213
-212
-210
-207
-203
-198
-196
-194
-193
-184
-181
-177
-174
-173
-169
-168
-166
-166
-164
-161
-160
-160
-153
-152
-152
-151
-151
-153
-155
-155
-158
-158
-157
-158
-160
-158
-162
-159
-163
-167
-168
-164
-164
-162
-159
-158
-156
-156
-158
-160
-160
-164
-163
-164
-164
-168
-162
-163
-163
-162
-159
-160
-164
-167
-168
-170
-173
-172
-172
-169
-165
-163
-160
-160
-163
-164
-163
-169
-166
-170
-168
-164
-161
-158
-159
-161
-162
-162
-166
-167
-167
-167
-165
-160
-161
-160
-159
-158
-160
-162
-160
-164
-162
-163
-158
-158
-156
-156
-155
-157
-160
-161
-161
-164
-159
-161
-160
-158
-154
-148
-144
-143
-144
-147
-142
-142
-143
-140
-133
-129
-122
-113
-111
-109
-111
-116
-126
-129
-131
-133
-134
-131
-129
-120
-115
-110
-109
-112
-121
-127
-135
-142
-145
-148
-151
-149
-153
-157
-160
-164
-167
-168
-166
-168
-165
-164
-166
-166
-162
-164
-165
-170
-168
-169
-172
-170
-169
-166
-164
-161
-163
-163
-163
-170
-170
-168
-170
-173
-172
-172
-172
-171
-171
-166
-156
-137
-110
-79
-47
-21
-5
-2
-6
-9
7
31
65
102
116
99
45
-44
-143
-237
-305
-346
-364
-381
-390
-397
-405
-411
-414
-416
-417
-414
-413
-408
-406
-399
-389
-374
-350
-317
-285
-252
-229
-211
-201
-191
-188
-188
-186
-186
-184
-186
-182
-182
-181
-179
-177
-176
-175
-176
-176
-177
-180
-182
-184
-185
-186
-186
-187
-186
-190
-192
-193
-197
-197
-203
-207
-206
-207
-208
-208
-209
-214
-215
-218
-223
-226
-227
-228
-229
-229
-228
-228
-230
-232
-234
-237
-241
-242
-238
-235
-234
-232
-226
-222
-217
-220
-218
-214
-212
-209
-209
-204
-202
-195
-189
-180
-177
