0.758963
0.758963
0.758963
0.758963
0.758963
0.758963
0.758963
0.758963
0.762776
0.760488
0.758963
0.758200
0.756674
0.757437
0.756674
0.754386
0.753623
0.752860
0.755149
0.757437
0.754386
0.753623
0.752098
0.753623
0.757437
0.760488
0.757437
0.752098
0.749809
0.745233
0.746758
0.743707
0.742944
0.741419
0.739130
0.739130
0.739130
0.740656
0.742182
0.740656
0.739130
0.736842
0.736842
0.736842
0.736842
0.737605
0.736079
0.734554
0.737605
0.739130
0.739130
0.738368
0.737605
0.734554
0.736842
0.735317
0.738368
0.736842
0.735317
0.733028
0.732265
0.729977
0.726163
0.722349
0.722349
0.719298
0.711670
0.707094
0.707094
0.716247
0.730740
0.747521
0.770404
0.799390
0.838291
0.875667
0.900076
0.909230
0.897788
0.860412
0.807018
0.755911
0.725401
0.714722
0.716247
0.724638
0.730740
0.731503
0.729977
0.728452
0.730740
0.731503
0.733028
0.733791
0.732265
0.729977
0.729214
0.731503
0.728452
0.729977
0.730740
0.729977
0.730740
0.731503
0.730740
0.730740
0.728452
0.726926
0.729977
0.731503
0.734554
0.732265
0.732265
0.730740
0.729214
0.729977
0.729214
0.728452
0.726926
0.726926
0.729214
0.730740
0.730740
0.730740
0.729214
0.727689
0.731503
0.731503
0.730740
0.730740
0.729977
0.729977
0.729214
0.730740
0.729214
0.727689
0.726926
0.727689
0.728452
0.730740
0.732265
0.729977
0.730740
0.728452
0.730740
0.729977
0.729977
0.728452
0.728452
0.726926
0.729214
0.729214
0.729977
0.730740
0.727689
0.727689
0.728452
0.729977
0.729977
0.729977
0.727689
0.726926
0.726926
0.728452
0.728452
0.729977
0.727689
0.726163
0.726163
0.726163
0.725401
0.726163
0.724638
0.722349
0.724638
0.726163
0.726926
0.726163
0.723875
0.723875
0.725401
0.725401
0.726163
0.726163
0.725401
0.724638
0.726926
0.730740
0.731503
0.731503
0.729977
0.729214
0.733028
0.735317
0.735317
0.736842
0.736079
0.736842
0.737605
0.739130
0.742182
0.742944
0.742944
0.740656
0.742182
0.743707
0.745995
0.743707
0.743707
0.742182
0.742182
0.744470
0.742944
0.742182
0.743707
0.742182
0.742944
0.742944
0.740656
0.741419
0.741419
0.740656
0.739893
0.740656
0.741419
0.739130
0.738368
0.736842
0.739130
0.739893
0.741419
0.738368
0.738368
0.737605
0.739130
0.739130
0.740656
0.739893
0.737605
0.736842
0.738368
0.739130
0.737605
0.738368
0.735317
0.735317
0.734554
0.736079
0.735317
0.733791
0.733791
0.734554
0.736079
0.737605
0.737605
0.736842
0.736079
0.733791
0.736842
0.736079
0.735317
0.734554
0.733791
0.731503
0.733791
0.735317
0.736842
0.733791
0.731503
0.730740
0.733028
0.735317
0.734554
0.733791
0.732265
0.730740
0.731503
0.733028
0.733791
0.734554
0.734554
0.733791
0.735317
0.734554
0.736842
0.735317
0.735317
0.734554
0.734554
0.736842
0.738368
0.736079
0.734554
0.733028
0.734554
0.736079
0.736842
0.738368
0.739893
0.739130
0.739130
0.739893
0.742944
0.742944
0.742182
0.746758
0.747521
0.749809
0.750572
0.749809
0.748284
0.745995
0.747521
0.746758
0.746758
0.746758
0.745995
0.745233
0.744470
0.745233
0.747521
0.749046
0.749809
0.743707
0.737605
0.737605
0.735317
0.733791
0.730740
0.730740
0.731503
0.733028
0.732265
0.733028
0.731503
0.729214
0.728452
0.729214
0.729214
0.727689
0.728452
0.726926
0.730740
0.729977
0.730740
0.732265
0.728452
0.726926
0.729214
0.730740
0.731503
0.730740
0.727689
0.725401
0.726163
0.723112
0.716247
0.713196
0.708619
0.703280
0.699466
0.704043
0.717773
0.735317
0.756674
0.778795
0.816934
0.855835
0.890923
0.914569
0.924485
0.919146
0.896262
0.855835
0.806255
0.764302
0.739893
0.721587
0.712433
0.708619
0.711670
0.716247
0.721587
0.721587
0.722349
0.721587
0.723112
0.723112
0.723112
0.720824
0.722349
0.722349
0.722349
0.723875
0.720824
0.718535
0.718535
0.720061
0.720824
0.721587
0.719298
0.720824
0.722349
0.723875
0.721587
0.721587
0.719298
0.718535
0.718535
0.721587
0.721587
0.720824
0.719298
0.717773
0.720061
0.718535
0.719298
0.718535
0.717773
0.718535
0.720061
0.720061
0.720824
0.721587
0.719298
0.718535
0.721587
0.721587
0.722349
0.722349
0.718535
0.719298
0.720824
0.721587
0.723875
0.721587
0.720824
0.718535
0.720061
0.721587
0.721587
0.722349
0.719298
0.717773
0.717773
0.720061
0.720824
0.719298
0.717773
0.717010
0.717010
0.718535
0.717773
0.716247
0.717010
0.714722
0.715484
0.715484
0.717010
0.715484
0.712433
0.711670
0.712433
0.714722
0.713196
0.712433
0.711670
0.709382
0.710908
0.711670
0.712433
0.711670
0.709382
0.708619
0.710908
0.712433
0.713196
0.713959
0.714722
0.713959
0.718535
0.720824
0.724638
0.725401
0.726163
0.725401
0.729214
0.731503
0.733028
0.732265
0.730740
0.730740
0.732265
0.733791
0.735317
0.735317
0.732265
0.732265
0.733028
0.734554
0.734554
0.736079
0.732265
0.730740
0.734554
0.733791
0.735317
0.735317
0.732265
0.731503
0.733791
0.734554
0.733028
0.734554
0.733028
0.733028
0.733791
0.736079
0.736842
0.734554
0.733791
0.732265
0.733028
0.735317
0.733028
0.733028
0.733028
0.730740
0.733028
0.732265
0.733028
0.731503
0.729977
0.729214
0.729977
0.729977
0.730740
0.731503
0.728452
0.727689
0.728452
0.729977
0.730740
0.730740
0.728452
0.728452
0.728452
0.732265
0.730740
0.729977
0.729214
0.726926
0.729977
0.730740
0.730740
0.729977
0.726926
0.726163
0.726926
0.727689
0.729214
0.728452
0.728452
0.728452
0.728452
0.730740
0.730740
0.729977
0.728452
0.727689
0.727689
0.729214
0.730740
0.728452
0.728452
0.726926
0.727689
0.729214
0.730740
0.729214
0.729214
0.729214
0.730740
0.729977
0.730740
0.729977
0.728452
0.728452
0.729214
0.730740
0.733028
0.736079
0.735317
0.736079
0.737605
0.739130
0.740656
0.740656
0.740656
0.742182
0.742944
0.744470
0.746758
0.748284
0.744470
0.743707
0.744470
0.743707
0.745233
0.743707
0.742944
0.739130
0.739130
0.740656
0.742944
0.746758
0.747521
0.745995
0.740656
0.739893
0.738368
0.737605
0.734554
0.732265
0.729214
0.730740
0.729977
0.729977
0.726926
0.724638
0.726163
0.728452
0.727689
0.726926
0.725401
0.723875
0.723112
0.724638
0.725401
0.725401
0.723112
0.722349
0.723112
0.723875
0.726926
0.724638
0.721587
0.719298
0.718535
0.714722
0.710145
0.706331
0.701754
0.696415
0.694127
0.700992
0.719298
0.742944
0.767353
0.799390
0.843631
0.886346
0.916095
0.927536
0.910755
0.860412
0.788711
0.732265
0.704805
0.704043
0.713196
0.717773
0.720824
0.721587
0.720824
0.721587
0.720824
0.719298
0.720824
0.719298
0.721587
0.720824
0.720824
0.718535
0.719298
0.720061
0.720061
0.717773
0.719298
0.717010
0.717773
0.719298
0.719298
0.717010
0.717010
0.714722
0.717010
0.718535
0.718535
0.719298
0.716247
0.715484
0.717010
0.717773
0.718535
0.718535
0.716247
0.717010
0.720061
0.720824
0.720061
0.720061
0.720824
0.717773
0.719298
0.721587
0.720061
0.720061
0.717773
0.716247
0.716247
0.717773
0.717773
0.718535
0.716247
0.716247
0.717010
0.717773
0.720061
0.720061
0.718535
0.716247
0.718535
0.719298
0.720824
0.720061
0.720061
0.719298
0.722349
0.720061
0.721587
0.721587
0.720061
0.717773
0.719298
0.719298
0.718535
0.717773
0.717010
0.717010
0.716247
0.717773
0.717773
0.718535
0.714722
0.715484
0.714722
0.717010
0.717010
0.717010
0.717010
0.716247
0.716247
0.717773
0.720824
0.720824
0.721587
0.723875
0.726163
0.729214
0.729977
0.730740
0.729977
0.729977
0.731503
0.732265
0.734554
0.734554
0.733028
0.733791
0.734554
0.735317
0.735317
0.735317
0.733791
0.733791
0.733791
0.733028
0.735317
0.734554
0.733028
0.732265
0.731503
0.733791
0.734554
0.734554
0.732265
0.731503
0.734554
0.733791
0.736079
0.733791
0.731503
0.730740
0.732265
0.732265
0.732265
0.731503
0.727689
0.727689
0.729214
0.729977
0.730740
0.729977
0.729214
0.726163
0.727689
0.727689
0.726926
0.726163
0.726926
0.725401
0.726926
0.727689
0.729214
0.726926
0.727689
0.725401
0.725401
0.727689
0.726926
0.727689
0.724638
0.723112
0.724638
0.726163
0.725401
0.726163
0.725401
0.723112
0.724638
0.725401
0.727689
0.727689
0.727689
0.724638
0.725401
0.728452
0.728452
0.729214
0.726926
0.725401
0.726163
0.726926
0.726926
0.726926
0.723875
0.722349
0.726926
0.726163
0.726926
0.726163
0.726163
0.724638
0.726163
0.728452
0.726926
0.728452
0.728452
0.728452
0.729214
0.733791
0.734554
0.734554
0.733791
0.734554
0.736842
0.737605
0.739130
0.738368
0.738368
0.739130
0.740656
0.742182
0.743707
0.741419
0.740656
0.739130
0.738368
0.740656
0.739893
0.739130
0.738368
0.739130
0.738368
0.739130
0.740656
0.742182
0.744470
0.741419
0.738368
0.733791
0.733791
0.728452
0.726163
0.723112
0.722349
0.723112
0.724638
0.723875
0.722349
0.721587
0.720824
0.722349
0.722349
0.722349
0.720824
0.719298
0.720061
0.723875
0.723875
0.721587
0.720824
0.717773
0.719298
0.720061
0.721587
0.719298
0.716247
0.710908
0.708619
0.704043
0.703280
0.700992
0.698703
0.689550
0.682685
0.684973
0.693364
0.705568
0.722349
0.739893
0.763539
0.794813
0.837529
0.877956
0.904653
0.912281
0.898551
0.853547
0.790999
0.734554
0.704805
0.701754
0.708619
0.718535
0.721587
0.721587
0.720061
0.718535
0.719298
0.722349
0.721587
0.720824
0.719298
0.718535
0.719298
0.720061
0.721587
0.720824
0.718535
0.717773
0.718535
0.720824
0.719298
0.718535
0.719298
0.719298
0.718535
0.721587
0.722349
0.721587
0.720824
0.720061
0.720061
0.720061
0.720824
0.720824
0.719298
0.719298
0.720061
0.720824
0.722349
0.723875
0.722349
0.720824
0.721587
0.722349
0.723875
0.722349
0.720824
0.720824
0.722349
0.723875
0.723875
0.722349
0.720824
0.721587
0.721587
0.725401
0.723875
0.722349
0.720824
0.723112
0.722349
0.723875
0.723112
0.721587
0.723112
0.723875
0.723875
0.723875
0.723875
0.723112
0.721587
0.721587
0.725401
0.724638
0.723875
0.722349
0.721587
0.721587
0.723875
0.725401
0.722349
0.723112
0.721587
0.723875
0.723875
0.725401
0.724638
0.722349
0.720824
0.722349
0.722349
0.724638
0.725401
0.724638
0.723875
0.727689
0.729977
0.732265
0.733028
0.732265
0.731503
0.733028
0.736079
0.737605
0.735317
0.736079
0.737605
0.737605
0.738368
0.739893
0.738368
0.736842
0.736079
0.736079
0.736842
0.738368
0.736842
0.736079
0.733791
0.736079
0.737605
0.738368
0.739130
0.736079
0.734554
0.735317
0.736079
0.736079
0.737605
0.735317
0.734554
0.735317
0.736079
0.735317
0.734554
0.733028
0.733791
0.733028
0.736079
0.735317
0.733791
0.730740
0.729214
0.730740
0.732265
0.732265
0.733028
0.731503
0.729977
0.730740
0.733028
0.732265
0.732265
0.730740
0.728452
0.729214
0.729977
0.730740
0.729977
0.728452
0.727689
0.728452
0.729214
0.729977
0.729977
0.730740
0.729977
0.729214
0.729977
0.732265
0.729214
0.729214
0.727689
0.725401
0.726163
0.728452
0.728452
0.727689
0.727689
0.727689
0.729214
0.729214
0.728452
0.728452
0.723112
0.726163
0.726163
0.728452
0.728452
0.727689
0.726926
0.728452
0.730740
0.730740
0.729977
0.729977
0.729214
0.730740
0.732265
0.736842
0.736842
0.735317
0.734554
0.737605
0.738368
0.739130
0.738368
0.739130
0.739893
0.740656
0.742944
0.745995
0.743707
0.744470
0.742182
0.742182
0.743707
0.745233
0.742182
0.740656
0.741419
0.742182
0.739893
0.740656
0.738368
0.742182
0.742944
0.743707
0.740656
0.738368
0.735317
0.733028
0.731503
0.729977
0.728452
0.730740
0.729977
0.728452
0.726163
0.727689
0.729214
0.729977
0.728452
0.726163
0.725401
0.723875
0.724638
0.725401
0.725401
0.723112
0.723875
0.723875
0.725401
0.724638
0.726163
0.724638
0.723112
0.725401
0.726163
0.727689
0.726926
0.724638
0.722349
0.720824
0.715484
0.713196
0.707094
0.702517
0.694889
0.696415
0.708619
0.726926
0.747521
0.772693
0.809306
0.853547
0.888635
0.906178
0.900076
0.862700
0.803204
0.750572
0.717010
0.704805
0.707857
0.712433
0.718535
0.720061
0.721587
0.721587
0.720061
0.719298
0.716247
0.716247
0.719298
0.720824
0.719298
0.719298
0.717773
0.719298
0.722349
0.721587
0.720824
0.720824
0.720824
0.720824
0.722349
0.721587
0.721587
0.720061
0.716247
0.718535
0.720061
0.720824
0.720061
0.719298
0.716247
0.717773
0.719298
0.719298
0.719298
0.718535
0.717773
0.719298
0.717010
0.719298
0.718535
0.718535
0.717010
0.717773
0.719298
0.720824
0.720824
0.720824
0.720061
0.720824
0.720824
0.719298
0.719298
0.717010
0.714722
0.717773
0.719298
0.720824
0.721587
0.717773
0.719298
0.719298
0.720061
0.720824
0.720824
0.719298
0.717010
0.717773
0.720061
0.720824
0.720061
0.719298
0.716247
0.716247
0.716247
0.717010
0.716247
0.712433
0.713196
0.712433
0.714722
0.713196
0.709382
0.711670
0.710908
0.713959
0.714722
0.716247
0.715484
0.713196
0.712433
0.713196
0.715484
0.717010
0.718535
0.716247
0.717010
0.719298
0.723112
0.724638
0.725401
0.725401
0.725401
0.728452
0.730740
0.733028
0.734554
0.734554
0.732265
0.733791
0.733791
0.734554
0.733791
0.733028
0.732265
0.733028
0.734554
0.734554
0.736079
0.733791
0.732265
0.733791
0.733028
0.736079
0.735317
0.734554
0.735317
0.737605
0.738368
0.736842
0.736079
0.734554
0.731503
0.734554
0.735317
0.735317
0.733028
0.731503
0.729977
0.731503
0.733028
0.732265
0.729977
0.730740
0.729214
0.731503
0.731503
0.732265
0.733028
0.729977
0.729977
0.728452
0.729977
0.731503
0.730740
0.733028
0.729977
0.730740
0.730740
0.730740
0.730740
0.729977
0.729214
0.730740
0.732265
0.733028
0.731503
0.729977
0.726926
0.728452
0.729214
0.729977
0.732265
0.731503
0.727689
0.730740
0.733028
0.733028
0.730740
0.730740
0.729977
0.729977
0.730740
0.730740
0.730740
0.729214
0.729214
0.729214
0.731503
0.731503
0.731503
0.728452
0.727689
0.729214
0.730740
0.732265
0.733791
0.734554
0.734554
0.739130
0.739893
0.742182
0.741419
0.740656
0.741419
0.742944
0.745233
0.745233
0.747521
0.745233
0.745233
0.747521
0.745995
0.746758
0.745233
0.743707
0.742182
0.744470
0.745995
0.745995
0.742944
0.742182
0.742944
0.745995
0.749809
0.751335
0.749046
0.745995
0.739893
0.739893
0.737605
0.737605
0.733791
0.730740
0.729214
0.729214
0.728452
0.727689
0.727689
0.729214
0.726926
0.728452
0.729214
0.729214
0.728452
0.726926
0.724638
0.726926
0.724638
0.728452
0.729214
0.726163
0.723112
0.726163
0.728452
0.727689
0.727689
0.726926
0.723112
0.721587
0.720824
0.716247
0.711670
0.708619
0.703280
0.697940
0.698703
0.705568
0.719298
0.736079
0.756674
0.787185
0.829138
0.871853
0.903127
0.916095
0.902365
0.860412
0.800915
0.748284
0.716247
0.704805
0.706331
0.712433
0.720061
0.721587
0.720824
0.720824
0.720061
0.721587
0.723112
0.722349
0.722349
0.720061
0.718535
0.718535
0.721587
0.721587
0.719298
0.719298
0.717773
0.718535
0.720824
0.720824
0.720061
0.717773
0.717773
0.717773
0.720061
0.721587
0.721587
0.718535
0.717773
0.719298
0.720824
0.720824
0.720824
0.719298
0.718535
0.718535
0.720061
0.721587
0.720824
0.718535
0.716247
0.717773
0.719298
0.718535
0.719298
0.717773
0.716247
0.716247
0.718535
0.720824
0.721587
0.720061
0.718535
0.718535
0.720061
0.721587
0.718535
0.717010
0.717010
0.717773
0.717773
0.719298
0.717010
0.717773
0.716247
0.718535
0.720061
0.719298
0.720061
0.720061
0.718535
0.720061
0.720824
0.720824
0.719298
0.718535
0.716247
0.716247
0.718535
0.718535
0.717010
0.715484
0.713196
0.713959
0.714722
0.715484
0.715484
0.712433
0.713196
0.713196
0.714722
0.714722
0.713196
0.713959
0.712433
0.715484
0.715484
0.717773
0.720061
0.720061
0.722349
0.725401
0.729977
0.730740
0.731503
0.730740
0.730740
0.733791
0.736079
0.737605
0.736842
0.736842
0.733791
0.736079
0.737605
0.738368
0.735317
0.736842
0.736079
0.736842
0.738368
0.739130
0.739130
0.736842
0.736842
0.737605
0.739893
0.739893
0.739893
0.739130
0.736842
0.737605
0.739130
0.739130
0.736842
0.736079
0.734554
0.736079
0.736079
0.737605
0.736842
0.735317
0.734554
0.733791
0.736079
0.735317
0.734554
0.733791
0.731503
0.731503
0.733028
0.733791
0.733028
0.733028
0.731503
0.732265
0.733791
0.732265
0.733028
0.730740
0.730740
0.732265
0.733791
0.733791
0.733791
0.730740
0.729977
0.730740
0.732265
0.731503
0.731503
0.730740
0.729977
0.730740
0.731503
0.731503
0.732265
0.731503
0.730740
0.731503
0.733028
0.734554
0.731503
0.733028
0.729977
0.730740
0.733791
0.732265
0.730740
0.730740
0.729977
0.730740
0.730740
0.732265
0.732265
0.730740
0.730740
0.731503
0.733028
0.733028
0.733028
0.730740
0.730740
0.732265
0.733028
0.734554
0.734554
0.736079
0.733028
0.735317
0.739130
0.742182
0.742182
0.741419
0.740656
0.742182
0.745233
0.745995
0.746758
0.747521
0.747521
0.748284
0.750572
0.749809
0.749809
0.746758
0.745233
0.744470
0.745995
0.748284
0.744470
0.744470
0.742944
0.745233
0.749046
0.750572
0.747521
0.742182
0.739130
0.737605
0.735317
0.734554
0.732265
0.730740
0.731503
0.732265
0.730740
0.730740
0.729977
0.729214
0.728452
0.729214
0.729977
0.732265
0.731503
0.729977
0.728452
0.728452
0.728452
0.729977
0.729214
0.728452
0.726926
0.729214
0.729214
0.729214
0.729214
0.728452
0.726926
0.725401
0.724638
0.719298
0.713196
0.707857
0.705568
0.701754
0.699466
0.704043
0.717773
0.738368
0.760488
0.790999
0.826850
0.869565
0.904653
0.925248
0.921434
0.899313
0.848970
0.784134
0.736079
0.713196
0.709382
0.716247
0.723112
0.726163
0.726163
0.724638
0.723112
0.723112
0.723875
0.724638
0.725401
0.724638
0.722349
0.722349
0.723875
0.724638
0.724638
0.722349
0.720824
0.722349
0.722349
0.721587
0.722349
0.720824
0.718535
0.720061
0.720824
0.723112
0.720824
0.720824
0.720061
0.720061
0.720824
0.721587
0.721587
0.720824
0.719298
0.721587
0.722349
0.723875
0.723875
0.723112
0.721587
0.722349
0.724638
0.724638
0.724638
0.723875
0.722349
0.724638
0.721587
0.723875
0.724638
0.723112
0.721587
0.721587
0.722349
0.723875
0.723875
0.722349
0.720824
0.721587
0.722349
0.723875
0.723112
0.722349
0.721587
0.723112
0.723112
0.724638
0.724638
0.725401
0.721587
0.725401
0.725401
0.726163
0.723875
0.723112
0.720061
0.721587
0.723875
0.723875
0.724638
0.722349
0.721587
0.721587
0.721587
0.721587
0.723875
0.722349
0.720824
0.723112
0.724638
0.723875
0.723875
0.721587
0.719298
0.723875
0.724638
0.726163
0.723875
0.722349
0.723112
0.724638
0.726163
0.728452
0.728452
0.730740
0.730740
0.733028
0.733791
0.736079
0.737605
0.737605
0.736079
0.738368
0.739893
0.738368
0.738368
0.738368
0.736842
0.736842
0.738368
0.739130
0.738368
0.737605
0.736842
0.736842
0.738368
0.738368
0.737605
0.736842
0.735317
0.736079
0.737605
0.738368
0.737605
0.737605
0.736079
0.737605
0.738368
0.739130
0.738368
0.736842
0.733791
0.734554
0.737605
0.739893
0.739893
0.739130
0.737605
0.737605
0.739893
0.740656
0.740656
0.740656
0.738368
0.740656
0.743707
0.745233
0.745233
0.742944
0.742944
0.743707
0.748284
0.747521
0.743707
0.742182
0.745995
0.749809
0.749046
0.747521
0.745995
0.744470
0.744470
0.743707
0.742944
0.739893
0.737605
0.733028
0.732265
0.732265
0.733791
0.730740
0.729214
0.728452
0.726163
0.725401
0.726163
0.727689
0.726926
0.723875
0.722349
0.723875
0.724638
0.725401
0.725401
0.724638
0.723112
0.726163
0.727689
0.726926
0.726926
0.727689
0.725401
0.727689
0.727689
0.729214
0.726926
0.727689
0.723875
0.725401
0.723875
0.720061
0.715484
0.708619
0.701754
0.701754
0.697178
0.694127
0.698703
0.713196
0.734554
0.759725
0.784897
0.820747
0.858886
0.893211
0.909992
0.914569
0.893211
0.842105
0.777269
0.729977
0.707857
0.709382
0.717773
0.723875
0.725401
0.722349
0.720061
0.723112
0.721587
0.723875
0.722349
0.720824
0.719298
0.721587
0.723112
0.722349
0.722349
0.720824
0.720061
0.719298
0.720061
0.721587
0.721587
0.720824
0.720061
0.721587
0.722349
0.721587
0.722349
0.718535
0.717010
0.719298
0.718535
0.721587
0.721587
0.721587
0.720061
0.720061
0.721587
0.723875
0.723112
0.720824
0.720061
0.721587
0.720061
0.721587
0.720824
0.718535
0.717773
0.719298
0.722349
0.722349
0.723112
0.720061
0.720061
0.720824
0.721587
0.723112
0.723875
0.720824
0.720824
0.722349
0.723112
0.723875
0.722349
0.721587
0.720061
0.720061
0.722349
0.723112
0.720824
0.721587
0.720061
0.720824
0.722349
0.723112
0.722349
0.720824
0.719298
0.720061
0.721587
0.723112
0.723112
0.722349
0.719298
0.720824
0.720061
0.721587
0.720061
0.719298
0.716247
0.717010
0.719298
0.720061
0.719298
0.719298
0.717773
0.720061
0.721587
0.723112
0.722349
0.720824
0.719298
0.721587
0.724638
0.724638
0.724638
0.722349
0.724638
0.726926
0.728452
0.729214
0.729977
0.729214
0.726926
0.729977
0.731503
0.733791
0.734554
0.734554
0.732265
0.733028
0.733791
0.734554
0.734554
0.730740
0.731503
0.728452
0.731503
0.733028
0.733028
0.734554
0.733791
0.733791
0.735317
0.734554
0.734554
0.733028
0.732265
0.731503
0.733028
0.734554
0.733028
0.731503
0.731503
0.730740
0.733028
0.733028
0.733791
0.730740
0.729214
0.729977
0.730740
0.728452
0.726926
0.725401
0.724638
0.728452
0.729214
0.729214
0.728452
0.726163
0.725401
0.726163
0.726163
0.728452
0.726926
0.725401
0.727689
0.726163
0.727689
0.729214
0.728452
0.726926
0.724638
0.727689
0.727689
0.727689
0.728452
0.727689
0.726926
0.726163
0.728452
0.726926
0.727689
0.726163
0.724638
0.726926
0.726926
0.727689
0.726926
0.726163
0.721587
0.722349
0.726163
0.726163
0.724638
0.724638
0.721587
0.723875
0.724638
0.727689
0.729214
0.728452
0.726163
0.726163
0.727689
0.727689
0.729977
0.726163
0.725401
0.725401
0.726163
0.726163
0.725401
0.723875
0.722349
0.722349
0.725401
0.724638
0.723875
0.724638
0.723875
0.725401
0.726926
0.726926
0.726163
0.725401
0.724638
0.726163
0.727689
0.729214
0.728452
0.729214
0.727689
0.728452
0.727689
0.726163
0.727689
0.726163
0.724638
0.726163
0.726163
0.726926
0.726163
0.723875
0.723875
0.724638
0.727689
0.726926
0.726163
0.725401
0.723875
0.724638
0.725401
0.726163
0.726926
0.726163
0.726163
0.727689
0.729214
0.728452
0.728452
0.726926
0.726163
0.726163
0.725401
0.728452
0.726926
0.727689
0.726163
0.726926
0.726163
0.728452
0.729977
0.730740
0.730740
0.733791
0.734554
0.735317
0.734554
0.736079
0.734554
0.737605
0.739130
0.740656
0.742182
0.742182
0.741419
0.740656
0.742182
0.742182
0.741419
0.738368
0.736842
0.738368
0.739893
0.742182
0.739130
0.736842
0.732265
0.735317
0.736079
0.739893
0.740656
0.739893
0.737605
0.735317
0.733791
0.733028
0.732265
0.727689
0.724638
0.725401
0.725401
0.725401
0.724638
0.724638
0.724638
0.723112
0.726163
0.723875
0.723875
0.720061
0.717010
0.719298
0.720061
0.722349
0.723112
0.720061
0.717773
0.719298
0.720824
0.720824
0.720824
0.718535
0.715484
0.713959
0.711670
0.706331
0.707094
0.701754
0.694127
0.693364
0.700992
0.717010
0.734554
0.752098
0.778032
0.814645
0.855073
0.890160
0.909992
0.916095
0.901602
0.866514
0.815408
0.770404
0.737605
0.716247
0.704805
0.697178
0.699466
0.704805
0.710145
0.712433
0.712433
0.714722
0.717010
0.718535
0.718535
0.717773
0.717010
0.716247
0.717010
0.715484
0.715484
0.713959
0.712433
0.712433
0.715484
0.715484
0.715484
0.713196
0.713196
0.713959
0.716247
0.715484
0.715484
0.716247
0.713196
0.713196
0.715484
0.714722
0.714722
0.713196
0.713196
0.714722
0.715484
0.716247
0.715484
0.715484
0.713959
0.717010
0.715484
0.716247
0.715484
0.713959
0.713959
0.715484
0.715484
0.717773
0.716247
0.715484
0.711670
0.713196
0.713196
0.715484
0.715484
0.713959
0.713959
0.714722
0.715484
0.717773
0.717773
0.716247
0.716247
0.717010
0.719298
0.719298
0.717773
0.717773
0.716247
0.715484
0.719298
0.719298
0.719298
0.719298
0.715484
0.717773
0.718535
0.717773
0.715484
0.713196
0.710145
0.710908
0.712433
0.711670
0.710908
0.710145
0.707094
0.705568
0.708619
0.706331
0.704805
0.705568
0.702517
0.704805
0.707094
0.706331
0.707094
0.704805
0.704805
0.706331
0.707857
0.710908
0.710908
0.709382
0.710145
0.713959
0.715484
0.716247
0.718535
0.718535
0.720061
0.721587
0.723112
0.726926
0.727689
0.726926
0.727689
0.729214
0.730740
0.731503
0.734554
0.732265
0.733028
0.734554
0.735317
0.734554
0.734554
0.733791
0.730740
0.733791
0.733028
0.733028
0.732265
0.731503
0.731503
0.731503
0.733791
0.733791
0.733028
0.731503
0.730740
0.731503
0.731503
0.733028
0.732265
0.730740
0.729977
0.730740
0.733028
0.732265
0.732265
0.729977
0.729977
0.731503
0.731503
0.732265
0.732265
0.731503
0.727689
0.728452
0.728452
0.729977
0.728452
0.726926
0.726926
0.726926
0.728452
0.729977
0.729977
0.728452
0.726926
0.729214
0.729977
0.730740
0.729977
0.728452
0.727689
0.727689
0.729214
0.729977
0.730740
0.726163
0.726926
0.728452
0.729977
0.728452
0.727689
0.726163
0.723112
0.724638
0.728452
0.728452
0.727689
0.726926
0.725401
0.726163
0.728452
0.728452
0.727689
0.726163
0.726163
0.727689
0.726926
0.729214
0.728452
0.726926
0.726926
0.726926
0.729214
0.729214
0.728452
0.725401
0.724638
0.727689
0.730740
0.732265
0.733028
0.736079
0.734554
0.736079
0.735317
0.737605
0.739130
0.741419
0.739130
0.740656
0.741419
0.742944
0.743707
0.742182
0.740656
0.741419
0.741419
0.742944
0.741419
0.738368
0.738368
0.739130
0.737605
0.738368
0.742182
0.743707
0.743707
0.741419
0.737605
0.736842
0.735317
0.732265
0.729977
0.726926
0.727689
0.726926
0.726926
0.723875
0.722349
0.723112
0.726163
0.727689
0.726163
0.725401
0.724638
0.724638
0.725401
0.726163
0.725401
0.724638
0.722349
0.722349
0.725401
0.726163
0.723112
0.722349
0.720824
0.720824
0.722349
0.723112
0.720824
0.716247
0.710145
0.704805
0.702517
0.700229
0.695652
0.691838
0.700229
0.718535
0.742182
0.765065
0.797101
0.835240
0.872616
0.904653
0.916857
0.907704
0.869565
0.809306
0.749809
0.712433
0.700992
0.705568
0.710145
0.714722
0.717773
0.717773
0.717773
0.720061
0.720824
0.719298
0.716247
0.714722
0.717773
0.717773
0.717773
0.717773
0.715484
0.717010
0.718535
0.719298
0.717010
0.718535
0.717010
0.720061
0.720824
0.722349
0.720061
0.720061
0.720061
0.720061
0.720824
0.720061
0.720061
0.720061
0.718535
0.720824
0.718535
0.720061
0.720824
0.719298
0.718535
0.717773
0.719298
0.720061
0.720824
0.719298
0.717773
0.719298
0.717773
0.718535
0.719298
0.719298
0.718535
0.719298
0.720061
0.720824
0.719298
0.719298
0.720061
0.720824
0.721587
0.720824
0.721587
0.720824
0.717010
0.717773
0.719298
0.720061
0.720061
0.717773
0.717010
0.718535
0.720824
0.720061
0.719298
0.717773
0.714722
0.717773
0.717773
0.720061
0.719298
0.717010
0.715484
0.716247
0.718535
0.718535
0.719298
0.717773
0.716247
0.716247
0.717010
0.718535
0.718535
0.717010
0.715484
0.716247
0.717010
0.719298
0.717773
0.718535
0.718535
0.722349
0.724638
0.726163
0.727689
0.727689
0.727689
0.729977
0.732265
0.734554
0.733028
0.733028
0.732265
0.734554
0.734554
0.736079
0.736842
0.736079
0.736079
0.737605
0.737605
0.739893
0.738368
0.738368
0.736079
0.738368
0.737605
0.739130
0.737605
0.736079
0.734554
0.736079
0.737605
0.737605
0.736842
0.735317
0.733791
0.736079
0.735317
0.736842
0.737605
0.734554
0.733791
0.735317
0.736079
0.734554
0.735317
0.734554
0.732265
0.732265
0.733791
0.735317
0.733791
0.732265
0.729214
0.730740
0.733791
0.733028
0.731503
0.731503
0.728452
0.730740
0.732265
0.732265
0.729977
0.729977
0.726926
0.729214
0.732265
0.733028
0.730740
0.729214
0.729214
0.727689
0.730740
0.730740
0.729214
0.727689
0.726926
0.728452
0.729977
0.729977
0.729214
0.729214
0.728452
0.729977
0.729977
0.731503
0.731503
0.729977
0.729214
0.729214
0.732265
0.733028
0.732265
0.729977
0.729977
0.732265
0.731503
0.733028
0.732265
0.732265
0.728452
0.729977
0.732265
0.733791
0.732265
0.732265
0.729214
0.730740
0.732265
0.733791
0.733791
0.733791
0.736079
0.738368
0.742182
0.742944
0.742944
0.742182
0.741419
0.744470
0.747521
0.745995
0.745995
0.748284
0.747521
0.746758
0.745995
0.745995
0.745233
0.743707
0.742182
0.744470
0.745233
0.743707
0.745233
0.745995
0.747521
0.751335
0.747521
0.743707
0.741419
0.739893
0.736842
0.735317
0.734554
0.734554
0.732265
0.730740
0.727689
0.727689
0.729977
0.729977
0.729977
0.729214
0.727689
0.727689
0.728452
0.729977
0.728452
0.726926
0.724638
0.727689
0.728452
0.729977
0.729977
0.729977
0.726926
0.726926
0.728452
0.726926
0.720824
0.712433
0.707857
0.704043
0.700992
0.697940
0.704805
0.720824
0.742182
0.770404
0.803204
0.845919
0.885583
0.914569
0.922197
0.902365
0.852784
0.784134
0.731503
0.709382
0.707094
0.718535
0.725401
0.726926
0.725401
0.723112
0.722349
0.723112
0.724638
0.724638
0.723875
0.722349
0.720824
0.722349
0.723112
0.722349
0.723875
0.721587
0.719298
0.719298
0.721587
0.722349
0.722349
0.721587
0.718535
0.720061
0.721587
0.722349
0.722349
0.720824
0.721587
0.720824
0.723112
0.723875
0.723112
0.722349
0.720061
0.722349
0.723112
0.723875
0.723112
0.720824
0.720824
0.722349
0.723875
0.724638
0.725401
0.722349
0.720824
0.722349
0.722349
0.724638
0.723875
0.724638
0.723875
0.723875
0.724638
0.726926
0.725401
0.723112
0.723875
0.724638
0.723112
0.725401
0.724638
0.723875
0.721587
0.723112
0.723875
0.723112
0.724638
0.723875
0.723112
0.722349
0.722349
0.724638
0.723875
0.723875
0.723112
0.723112
0.723112
0.723112
0.723875
0.721587
0.720824
0.722349
0.722349
0.723875
0.723875
0.722349
0.722349
0.721587
0.724638
0.725401
0.725401
0.723875
0.722349
0.727689
0.728452
0.731503
0.731503
0.730740
0.731503
0.731503
0.733028
0.733028
0.733028
0.735317
0.735317
0.737605
0.739893
0.740656
0.741419
0.739130
0.737605
0.740656
0.742182
0.742944
0.739893
0.738368
0.737605
0.737605
0.738368
0.739893
0.739893
0.739893
0.737605
0.738368
0.739130
0.739893
0.740656
0.739130
0.736842
0.737605
0.737605
0.739130
0.739893
0.738368
0.736079
0.738368
0.739893
0.739893
0.739130
0.737605
0.735317
0.736079
0.736842
0.736079
0.735317
0.736842
0.734554
0.736079
0.736842
0.736079
0.736842
0.733791
0.732265
0.733028
0.733028
0.735317
0.734554
0.733028
0.730740
0.732265
0.734554
0.733028
0.734554
0.733028
0.731503
0.733791
0.736079
0.735317
0.734554
0.733791
0.731503
0.733028
0.733028
0.734554
0.734554
0.731503
0.732265
0.732265
0.733791
0.734554
0.732265
0.732265
0.732265
0.733791
0.734554
0.736842
0.737605
0.736842
0.734554
0.733791
0.735317
0.735317
0.733791
0.733028
0.733028
0.733791
0.736079
0.735317
0.736079
0.733028
0.733791
0.736842
0.740656
0.744470
0.742182
0.744470
0.742944
0.746758
0.746758
0.748284
0.749046
0.750572
0.751335
0.751335
0.753623
0.754386
0.753623
0.749809
0.748284
0.749046
0.749046
0.749046
0.749046
0.748284
0.746758
0.749046
0.753623
0.755149
0.752860
0.744470
0.742182
0.742182
0.739893
0.739130
0.737605
0.735317
0.735317
0.733028
0.734554
0.735317
0.736079
0.735317
0.733028
0.733791
0.733791
0.735317
0.735317
0.734554
0.733028
0.731503
0.732265
0.732265
0.732265
0.731503
0.729214
0.729977
0.731503
0.733028
0.732265
0.728452
0.724638
0.720824
0.716247
0.713196
0.710145
0.703280
0.700229
0.707094
0.724638
0.745233
0.767353
0.797101
0.838291
0.881007
0.906178
0.913044
0.893211
0.849733
0.790237
0.739893
0.715484
0.710908
0.717773
0.722349
0.725401
0.726926
0.726926
0.728452
0.727689
0.727689
0.726163
0.728452
0.729214
0.729214
0.729977
0.729977
0.726926
0.728452
0.729214
0.729977
0.729214
0.727689
0.725401
0.726163
0.725401
0.727689
0.728452
0.725401
0.726163
0.727689
0.726926
0.727689
0.726926
0.727689
0.726163
0.729977
0.729977
0.730740
0.729214
0.727689
0.727689
0.728452
0.729977
0.728452
0.726926
0.726926
0.724638
0.726926
0.727689
0.728452
0.725401
0.725401
0.724638
0.725401
0.726926
0.728452
0.728452
0.728452
0.729214
0.729977
0.731503
0.729977
0.728452
0.727689
0.727689
0.726926
0.726926
0.726163
0.727689
0.726163
0.725401
0.728452
0.728452
0.730740
0.727689
0.728452
0.726926
0.727689
0.729214
0.729977
0.727689
0.725401
0.723112
0.722349
0.726926
0.726163
0.726926
0.724638
0.722349
0.724638
0.724638
0.727689
0.728452
0.725401
0.725401
0.726163
0.728452
0.730740
0.730740
0.730740
0.729977
0.733028
0.733791
0.737605
0.736842
0.736842
0.735317
0.738368
0.739130
0.741419
0.741419
0.739893
0.740656
0.742182
0.742944
0.743707
0.743707
0.742182
0.740656
0.741419
0.742182
0.744470
0.742944
0.742182
0.739130
0.739130
0.740656
0.739893
0.739130
0.738368
0.736842
0.738368
0.739130
0.739893
0.739893
0.738368
0.736842
0.738368
0.737605
0.739130
0.736842
0.738368
0.736842
0.738368
0.737605
0.739130
0.738368
0.736079
0.734554
0.735317
0.735317
0.734554
0.733028
0.732265
0.733791
0.733791
0.735317
0.733791
0.733791
0.732265
0.731503
0.733791
0.732265
0.733791
0.733791
0.733028
0.731503
0.733028
0.734554
0.733028
0.733791
0.732265
0.731503
0.731503
0.732265
0.734554
0.734554
0.735317
0.733028
0.735317
0.733791
0.733028
0.734554
0.733791
0.732265
0.733791
0.735317
0.736079
0.735317
0.733028
0.731503
0.731503
0.734554
0.733791
0.736842
0.733028
0.731503
0.732265
0.736842
0.738368
0.741419
0.741419
0.740656
0.741419
0.742944
0.745995
0.747521
0.747521
0.745233
0.747521
0.749809
0.749809
0.749046
0.749046
0.745995
0.744470
0.745995
0.746758
0.745233
0.742944
0.740656
0.741419
0.743707
0.748284
0.748284
0.743707
0.738368
0.739130
0.739130
0.736079
0.733791
0.731503
0.729214
0.729214
0.731503
0.733028
0.733791
0.733028
0.730740
0.730740
0.731503
0.731503
0.729977
0.728452
0.727689
0.727689
0.727689
0.728452
0.727689
0.725401
0.726163
0.727689
0.726926
0.728452
0.728452
0.727689
0.725401
0.723112
0.719298
0.716247
0.713959
0.709382
0.701754
0.698703
0.706331
0.721587
0.741419
0.763539
0.794050
0.836003
0.874905
0.900076
0.908467
0.890923
0.843631
0.785660
0.742182
0.717773
0.709382
0.710145
0.714722
0.720824
0.723875
0.724638
0.723875
0.723875
0.721587
0.720061
0.723112
0.722349
0.722349
0.722349
0.722349
0.724638
0.724638
0.726163
0.723112
0.723112
0.722349
0.724638
0.724638
0.725401
0.723875
0.722349
0.721587
0.721587
0.722349
0.722349
0.720824
0.721587
0.720061
0.719298
0.721587
0.720824
0.721587
0.719298
0.719298
0.720061
0.723875
0.723112
0.721587
0.720824
0.720824
0.721587
0.721587
0.722349
0.719298
0.720061
0.719298
0.720824
0.721587
0.720824
0.721587
0.720061
0.719298
0.719298
0.721587
0.721587
0.720824
0.720061
0.720061
0.720824
0.723112
0.724638
0.723112
0.722349
0.720824
0.721587
0.723112
0.723112
0.722349
0.721587
0.721587
0.720061
0.720061
0.719298
0.717773
0.717010
0.715484
0.715484
0.716247
0.717010
0.715484
0.713196
0.710145
0.711670
0.713959
0.716247
0.714722
0.712433
0.713959
0.713196
0.716247
0.716247
0.716247
0.715484
0.715484
0.717773
0.717773
0.722349
0.723875
0.722349
0.724638
0.726163
0.727689
0.729977
0.729977
0.731503
0.732265
0.731503
0.734554
0.736079
0.735317
0.736842
0.736079
0.736842
0.736842
0.737605
0.737605
0.737605
0.736842
0.736842
0.737605
0.739893
0.739893
0.738368
0.736842
0.737605
0.739130
0.739130
0.739130
0.736842
0.734554
0.734554
0.735317
0.738368
0.736842
0.734554
0.733028
0.733791
0.736079
0.736842
0.735317
0.734554
0.734554
0.733791
0.735317
0.736079
0.734554
0.734554
0.733028
0.733791
0.733791
0.736079
0.735317
0.734554
0.733791
0.734554
0.734554
0.736079
0.735317
0.733028
0.731503
0.732265
0.732265
0.733028
0.733791
0.731503
0.729977
0.730740
0.732265
0.732265
0.733791
0.730740
0.730740
0.731503
0.733791
0.734554
0.734554
0.732265
0.730740
0.731503
0.735317
0.733791
0.734554
0.733028
0.730740
0.730740
0.730740
0.732265
0.731503
0.731503
0.729977
0.731503
0.733028
0.733791
0.733028
0.732265
0.731503
0.733028
0.733791
0.734554
0.733791
0.733028
0.732265
0.733028
0.733791
0.736079
0.736079
0.734554
0.733791
0.735317
0.738368
0.739130
0.740656
0.739130
0.739130
0.741419
0.744470
0.744470
0.745233
0.744470
0.745233
0.746758
0.748284
0.749809
0.749809
0.749046
0.748284
0.747521
0.747521
0.748284
0.747521
0.747521
0.745995
0.745995
0.744470
0.749046
0.747521
0.745995
0.742182
0.745233
0.749046
0.752098
0.749809
0.746758
0.741419
0.739130
0.738368
0.737605
0.734554
0.732265
0.733028
0.729977
0.731503
0.729977
0.732265
0.731503
0.732265
0.731503
0.731503
0.733791
0.734554
0.732265
0.732265
0.730740
0.732265
0.732265
0.730740
0.730740
0.726163
0.726926
0.730740
0.731503
0.731503
0.729977
0.727689
0.729214
0.728452
0.726926
0.722349
0.716247
0.712433
0.709382
0.707094
0.703280
0.702517
0.711670
0.731503
0.755911
0.782609
0.819222
0.859649
0.893974
0.916095
0.923722
0.908467
0.861175
0.799390
0.745995
0.716247
0.711670
0.717010
0.723112
0.726163
0.725401
0.723875
0.723112
0.726926
0.726926
0.724638
0.723875
0.722349
0.723112
0.725401
0.724638
0.724638
0.725401
0.723112
0.724638
0.723875
0.725401
0.724638
0.723112
0.723875
0.725401
0.726163
0.726163
0.726926
0.726926
0.724638
0.725401
0.726926
0.727689
0.727689
0.727689
0.726163
0.726163
0.726163
0.727689
0.726926
0.725401
0.724638
0.726163
0.727689
0.726926
0.727689
0.726926
0.724638
0.723875
0.726163
0.727689
0.728452
0.727689
0.724638
0.724638
0.726926
0.727689
0.728452
0.726163
0.724638
0.725401
0.726163
0.727689
0.726926
0.725401
0.725401
0.724638
0.725401
0.727689
0.727689
0.726163
0.726163
0.726926
0.728452
0.727689
0.728452
0.726926
0.724638
0.725401
0.726926
0.726163
0.725401
0.725401
0.723112
0.722349
0.723875
0.724638
0.723875
0.722349
0.720824
0.723875
0.722349
0.723112
0.724638
0.722349
0.722349
0.723112
0.724638
0.726163
0.727689
0.729977
0.730740
0.733028
0.736079
0.736842
0.736842
0.737605
0.736842
0.738368
0.738368
0.741419
0.742182
0.739893
0.739130
0.741419
0.742944
0.743707
0.742944
0.741419
0.740656
0.743707
0.745233
0.743707
0.744470
0.742944
0.740656
0.742944
0.742944
0.742944
0.742944
0.742182
0.740656
0.741419
0.744470
0.742944
0.743707
0.742944
0.739893
0.740656
0.739893
0.740656
0.740656
0.739130
0.737605
0.739130
0.740656
0.739893
0.739893
0.738368
0.737605
0.737605
0.738368
0.737605
0.738368
0.737605
0.735317
0.736842
0.737605
0.739893
0.738368
0.736079
0.736842
0.736842
0.736079
0.736842
0.737605
0.734554
0.733028
0.733791
0.733791
0.736842
0.736079
0.733791
0.732265
0.733028
0.733791
0.735317
0.735317
0.733028
0.732265
0.733028
0.732265
0.736842
0.735317
0.735317
0.733028
0.733791
0.735317
0.735317
0.736842
0.733791
0.731503
0.733028
0.734554
0.734554
0.734554
0.733028
0.731503
0.732265
0.733791
0.735317
0.736079
0.733028
0.732265
0.734554
0.735317
0.736842
0.736079
0.736079
0.733791
0.736079
0.736079
0.737605
0.736079
0.736079
0.733791
0.735317
0.737605
0.738368
0.739130
0.738368
0.740656
0.743707
0.745995
0.744470
0.744470
0.744470
0.743707
0.747521
0.747521
0.748284
0.750572
0.750572
0.749046
0.749809
0.751335
0.749809
0.749046
0.748284
0.746758
0.746758
0.750572
0.750572
0.749046
0.746758
0.747521
0.751335
0.753623
0.754386
0.749809
0.743707
0.740656
0.739130
0.738368
0.737605
0.735317
0.733791
0.731503
0.732265
0.731503
0.733791
0.731503
0.730740
0.729214
0.729977
0.730740
0.731503
0.732265
0.729214
0.728452
0.729214
0.730740
0.729977
0.730740
0.729214
0.729214
0.729977
0.729977
0.730740
0.729977
0.728452
0.723875
0.720824
0.715484
0.713959
0.712433
0.712433
0.708619
0.707857
0.703280
0.697178
0.693364
0.697940
0.706331
0.723875
0.742944
0.762776
0.790237
0.824561
0.861175
0.893974
0.912281
0.916857
0.892448
0.845919
0.783371
0.737605
0.714722
0.712433
0.714722
0.722349
0.723112
0.724638
0.724638
0.724638
0.726163
0.726163
0.724638
0.722349
0.725401
0.726163
0.725401
0.725401
0.723875
0.722349
0.726163
0.725401
0.726926
0.723875
0.723112
0.723875
0.726926
0.726926
0.726163
0.725401
0.723112
0.724638
0.726926
0.727689
0.726926
0.725401
0.723112
0.725401
0.726926
0.726926
0.725401
0.722349
0.721587
0.723875
0.726926
0.725401
0.726163
0.726926
0.725401
0.725401
0.726926
0.728452
0.728452
0.725401
0.726163
0.723875
0.726926
0.726163
0.725401
0.725401
0.724638
0.726163
0.726926
0.726163
0.725401
0.722349
0.723112
0.725401
0.726926
0.729977
0.726163
0.726163
0.722349
0.723112
0.723875
0.726163
0.726163
0.725401
0.723875
0.725401
0.726926
0.726163
0.727689
0.726163
0.724638
0.724638
0.725401
0.724638
0.723112
0.721587
0.722349
0.723112
0.724638
0.724638
0.725401
0.725401
0.721587
0.723875
0.724638
0.726926
0.725401
0.726163
0.724638
0.727689
0.729214
0.731503
0.732265
0.733028
0.731503
0.733791
0.736079
0.737605
0.736842
0.736842
0.739130
0.739893
0.740656
0.741419
0.741419
0.739130
0.739130
0.737605
0.741419
0.741419
0.740656
0.739893
0.738368
0.739130
0.742182
0.742182
0.743707
0.742182
0.741419
0.742182
0.742182
0.741419
0.740656
0.738368
0.736079
0.736842
0.739130
0.738368
0.738368
0.738368
0.737605
0.737605
0.738368
0.739893
0.737605
0.735317
0.733791
0.735317
0.736842
0.738368
0.735317
0.736842
0.733791
0.735317
0.736079
0.736842
0.737605
0.736079
0.731503
0.733028
0.733791
0.734554
0.735317
0.733028
0.730740
0.732265
0.732265
0.733028
0.732265
0.731503
0.729977
0.730740
0.731503
0.733791
0.733028
0.733028
0.729977
0.732265
0.733791
0.733028
0.733791
0.732265
0.729977
0.731503
0.731503
0.733028
0.733791
0.732265
0.730740
0.732265
0.732265
0.733791
0.730740
0.730740
0.728452
0.729214
0.730740
0.732265
0.733028
0.729977
0.729977
0.730740
0.733791
0.733791
0.733028
0.730740
0.732265
0.733028
0.735317
0.737605
0.738368
0.740656
0.741419
0.740656
0.741419
0.742182
0.741419
0.742944
0.742182
0.744470
0.745995
0.749809
0.749046
0.746758
0.745233
0.746758
0.746758
0.745995
0.746758
0.744470
0.744470
0.745995
0.745233
0.742944
0.742944
0.742182
0.745233
0.747521
0.749809
0.748284
0.744470
0.740656
0.738368
0.738368
0.739893
0.739893
0.736842
0.732265
0.729977
0.729214
0.730740
0.730740
0.729977
0.727689
0.726163
0.727689
0.727689
0.728452
0.727689
0.726926
0.725401
0.726163
0.726926
0.727689
0.729214
0.726163
0.724638
0.724638
0.726926
0.728452
0.727689
0.724638
0.722349
0.718535
0.713959
0.710908
0.706331
0.698703
0.694889
0.697178
0.707094
0.725401
0.742182
0.762014
0.794813
0.836003
0.872616
0.895500
0.902365
0.887872
0.848208
0.795576
0.752860
0.724638
0.709382
0.706331
0.709382
0.713959
0.716247
0.718535
0.718535
0.718535
0.717010
0.720061
0.720824
0.719298
0.718535
0.719298
0.717010
0.720824
0.720824
0.721587
0.720824
0.720824
0.718535
0.720061
0.720061
0.718535
0.720061
0.719298
0.718535
0.718535
0.720061
0.721587
0.721587
0.720061
0.720061
0.720824
0.721587
0.722349
0.721587
0.718535
0.718535
0.718535
0.717773
0.718535
0.719298
0.717010
0.717010
0.717010
0.717773
0.718535
0.717773
0.716247
0.716247
0.717010
0.716247
0.717010
0.718535
0.718535
0.717773
0.718535
0.718535
0.720061
0.719298
0.719298
0.716247
0.717010
0.718535
0.720061
0.719298
0.717773
0.717010
0.718535
0.718535
0.720061
0.718535
0.717773
0.717010
0.718535
0.720061
0.721587
0.720061
0.717773
0.717010
0.717773
0.717773
0.720061
0.717773
0.715484
0.712433
0.713959
0.713959
0.714722
0.714722
0.713959
0.712433
0.714722
0.713959
0.715484
0.713959
0.713196
0.713196
0.713959
0.714722
0.717010
0.717773
0.718535
0.719298
0.723112
0.723875
0.724638
0.724638
0.724638
0.726163
0.726926
0.731503
0.734554
0.733791
0.732265
0.731503
0.731503
0.733028
0.735317
0.734554
0.732265
0.730740
0.730740
0.733791
0.733791
0.733791
0.734554
0.733791
0.732265
0.734554
0.735317
0.735317
0.734554
0.732265
0.732265
0.733028
0.733028
0.733791
0.730740
0.729977
0.729977
0.732265
0.733028
0.733028
0.731503
0.730740
0.729977
0.732265
0.735317
0.735317
0.732265
0.732265
0.730740
0.732265
0.732265
0.731503
0.729214
0.726926
0.728452
0.727689
0.728452
0.728452
0.726163
0.726163
0.728452
0.729214
0.729214
0.726926
0.727689
0.727689
0.726926
0.729214
0.729977
0.729214
0.727689
0.726926
0.726926
0.726926
0.728452
0.728452
0.727689
0.726163
0.725401
0.725401
0.727689
0.727689
0.726163
0.724638
0.726163
0.727689
0.729977
0.727689
0.727689
0.728452
0.729214
0.729214
0.729214
0.729214
0.728452
0.727689
0.726163
0.727689
0.729977
0.728452
0.727689
0.727689
0.726926
0.729214
0.729977
0.730740
0.729214
0.726926
0.726926
0.730740
0.733028
0.733028
0.733028
0.732265
0.735317
0.735317
0.738368
0.740656
0.738368
0.737605
0.740656
0.745233
0.745995
0.745995
0.743707
0.742182
0.742944
0.743707
0.742944
0.742182
0.740656
0.739893
0.736842
0.738368
0.739130
0.741419
0.742182
0.741419
0.739130
0.736079
0.735317
0.734554
0.729977
0.726926
0.727689
0.727689
0.727689
0.726926
0.724638
0.724638
0.726163
0.725401
0.726926
0.725401
0.723875
0.722349
0.723112
0.723875
0.726926
0.724638
0.722349
0.721587
0.721587
0.724638
0.726163
0.724638
0.723112
0.722349
0.723112
0.723875
0.724638
0.723112
0.719298
0.713196
0.710145
0.707857
0.707094
0.700992
0.696415
0.699466
0.712433
0.731503
0.752860
0.777269
0.809306
0.846682
0.881770
0.905416
0.910755
0.895500
0.855073
0.797864
0.749046
0.721587
0.710908
0.707094
0.709382
0.712433
0.716247
0.717773
0.719298
0.717773
0.717773
0.717010
0.720061
0.720824
0.722349
0.720824
0.720061
0.717010
0.718535
0.720061
0.720061
0.719298
0.719298
0.714722
0.717010
0.718535
0.719298
0.717773
0.715484
0.713959
0.714722
0.717773
0.717010
0.715484
0.717773
0.715484
0.716247
0.717010
0.717010
0.717773
0.716247
0.716247
0.717010
0.718535
0.718535
0.718535
0.717010
0.715484
0.717010
0.717773
0.720824
0.719298
0.717773
0.715484
0.717010
0.717010
0.717773
0.717010
0.716247
0.713959
0.715484
0.716247
0.717773
0.717010
0.716247
0.713959
0.715484
0.715484
0.716247
0.717010
0.717773
0.716247
0.715484
0.716247
0.717773
0.719298
0.719298
0.716247
0.717773
0.717010
0.717010
0.717010
0.714722
0.714722
0.713959
0.717010
0.715484
0.712433
0.711670
0.710145
0.710145
0.710145
0.710145
0.710145
0.709382
0.706331
0.707094
0.710908
0.711670
0.710908
0.711670
0.711670
0.713959
0.716247
0.717773
0.720061
0.719298
0.720061
0.722349
0.725401
0.725401
0.726163
0.724638
0.723875
0.726926
0.729214
0.730740
0.730740
0.730740
0.729214
0.729977
0.732265
0.734554
0.733028
0.732265
0.732265
0.732265
0.733028
0.733791
0.733791
0.733028
0.730740
0.732265
0.732265
0.733791
0.732265
0.730740
0.729214
0.730740
0.731503
0.731503
0.732265
0.729214
0.727689
0.729214
0.732265
0.733028
0.731503
0.729214
0.728452
0.728452
0.729214
0.730740
0.729977
0.728452
0.726163
0.726926
0.729214
0.730740
0.729977
0.728452
0.725401
0.724638
0.727689
0.729214
0.729977
0.726163
0.726926
0.729214
0.729977
0.729977
0.732265
0.729977
0.726926
0.727689
0.728452
0.729214
0.729977
0.727689
0.724638
0.726163
0.726926
0.727689
0.728452
0.725401
0.726163
0.726163
0.727689
0.728452
0.726926
0.726926
0.725401
0.726163
0.728452
0.728452
0.727689
0.726926
0.726163
0.726926
0.727689
0.729977
0.729977
0.726926
0.728452
0.729214
0.730740
0.729214
0.728452
0.727689
0.726926
0.727689
0.729977
0.730740
0.730740
0.730740
0.730740
0.734554
0.737605
0.739130
0.738368
0.737605
0.736842
0.739130
0.741419
0.743707
0.744470
0.744470
0.744470
0.745233
0.746758
0.747521
0.745995
0.744470
0.742182
0.742182
0.744470
0.744470
0.742944
0.739893
0.739893
0.744470
0.745995
0.746758
0.740656
0.736079
0.734554
0.731503
0.733028
0.731503
0.730740
0.728452
0.726163
0.725401
0.726926
0.728452
0.729214
0.729977
0.726163
0.726926
0.728452
0.729977
0.726926
0.727689
0.723875
0.723875
0.725401
0.725401
0.727689
0.724638
0.723112
0.725401
0.724638
0.726926
0.724638
0.723112
0.722349
0.722349
0.720061
0.715484
0.710145
0.707094
0.701754
0.696415
0.700992
0.714722
0.734554
0.757437
0.782609
0.820747
0.862700
0.897025
0.916857
0.919146
0.888635
0.836003
0.776506
0.732265
0.711670
0.708619
0.713959
0.720824
0.723112
0.723112
0.722349
0.720824
0.720061
0.719298
0.720824
0.718535
0.721587
0.720824
0.719298
0.719298
0.720824
0.722349
0.722349
0.719298
0.719298
0.720061
0.722349
0.723112
0.722349
0.719298
0.718535
0.720061
0.720824
0.722349
0.720824
0.718535
0.719298
0.719298
0.720824
0.721587
0.720824
0.720824
0.719298
0.718535
0.720061
0.722349
0.720824
0.720061
0.720824
0.722349
0.722349
0.723875
0.723875
0.723112
0.720824
0.722349
0.721587
0.722349
0.723112
0.721587
0.720061
0.720061
0.721587
0.725401
0.723875
0.722349
0.720061
0.720061
0.721587
0.723112
0.723875
0.722349
0.720824
0.723112
0.724638
0.725401
0.725401
0.723875
0.722349
0.723875
0.723875
0.725401
0.724638
0.723875
0.720061
0.720824
0.719298
0.724638
0.722349
0.720061
0.718535
0.720061
0.720824
0.723875
0.723112
0.722349
0.719298
0.722349
0.723875
0.724638
0.725401
0.725401
0.727689
0.726926
0.732265
0.733791
0.733791
0.734554
0.733791
0.736842
0.738368
0.738368
0.739893
0.738368
0.737605
0.738368
0.737605
0.740656
0.739893
0.739130
0.736842
0.736842
0.739130
0.739130
0.739893
0.739130
0.736842
0.737605
0.737605
0.741419
0.741419
0.739130
0.737605
0.739130
0.740656
0.739893
0.738368
0.736842
0.736079
0.735317
0.738368
0.738368
0.739130
0.736842
0.735317
0.734554
0.737605
0.737605
0.737605
0.736079
0.735317
0.735317
0.736079
0.738368
0.736079
0.736842
0.734554
0.734554
0.735317
0.737605
0.737605
0.733791
0.733028
0.734554
0.734554
0.736079
0.735317
0.732265
0.729977
0.732265
0.732265
0.733791
0.733028
0.733791
0.730740
0.732265
0.733791
0.734554
0.734554
0.733028
0.733028
0.733028
0.734554
0.734554
0.735317
0.733791
0.733791
0.733791
0.733791
0.736079
0.735317
0.731503
0.731503
0.730740
0.732265
0.733791
0.734554
0.733028
0.730740
0.732265
0.733791
0.734554
0.735317
0.736079
0.732265
0.733791
0.735317
0.739130
0.739893
0.741419
0.742944
0.745233
0.745995
0.746758
0.745995
0.745995
0.744470
0.745995
0.746758
0.749809
0.749809
0.750572
0.749046
0.751335
0.750572
0.752098
0.750572
0.749046
0.746758
0.746758
0.747521
0.747521
0.747521
0.745995
0.742944
0.743707
0.745995
0.749809
0.752860
0.751335
0.746758
0.742944
0.742182
0.740656
0.739130
0.734554
0.732265
0.731503
0.731503
0.730740
0.730740
0.731503
0.729977
0.729214
0.729977
0.732265
0.729977
0.728452
0.726926
0.727689
0.726926
0.727689
0.728452
0.729214
0.726926
0.727689
0.729214
0.729214
0.729214
0.726926
0.720061
0.714722
0.711670
0.709382
0.704805
0.698703
0.697940
0.710145
0.726926
0.749046
0.775744
0.809306
0.847445
0.884058
0.906178
0.906941
0.878718
0.829901
0.770404
0.729214
0.713196
0.713196
0.718535
0.723112
0.723875
0.723875
0.724638
0.725401
0.726163
0.724638
0.723875
0.724638
0.726163
0.727689
0.726926
0.725401
0.723112
0.723112
0.724638
0.725401
0.725401
0.723112
0.722349
0.721587
0.723112
0.723875
0.723875
0.723112
0.721587
0.723112
0.723875
0.724638
0.725401
0.723875
0.722349
0.725401
0.726163
0.727689
0.726926
0.726926
0.724638
0.725401
0.727689
0.726163
0.725401
0.725401
0.723875
0.723875
0.726926
0.726926
0.724638
0.723875
0.723112
0.722349
0.724638
0.724638
0.726163
0.724638
0.723875
0.725401
0.726926
0.728452
0.726163
0.726926
0.725401
0.726163
0.728452
0.729977
0.729977
0.726926
0.726926
0.727689
0.729214
0.727689
0.727689
0.726926
0.725401
0.726163
0.725401
0.725401
0.725401
0.724638
0.723875
0.723112
0.725401
0.727689
0.726163
0.725401
0.723112
0.723875
0.724638
0.726163
0.725401
0.723875
0.723112
0.723875
0.726163
0.726926
0.726926
0.726926
0.727689
0.727689
0.729214
0.730740
0.731503
0.729977
0.729977
0.730740
0.733791
0.735317
0.736079
0.734554
0.733791
0.737605
0.737605
0.740656
0.739893
0.737605
0.736842
0.739130
0.739893
0.742182
0.740656
0.740656
0.739130
0.739893
0.741419
0.742944
0.741419
0.739893
0.738368
0.736842
0.736842
0.738368
0.738368
0.736842
0.734554
0.735317
0.735317
0.736079
0.735317
0.736842
0.735317
0.733791
0.733791
0.736079
0.736079
0.735317
0.732265
0.733028
0.733028
0.735317
0.733791
0.734554
0.733028
0.734554
0.734554
0.734554
0.735317
0.734554
0.733791
0.733028
0.733028
0.733028
0.732265
0.729977
0.728452
0.729977
0.733791
0.731503
0.732265
0.730740
0.731503
0.731503
0.732265
0.732265
0.733028
0.731503
0.728452
0.729977
0.731503
0.731503
0.730740
0.729977
0.729214
0.729977
0.731503
0.732265
0.733028
0.729977
0.728452
0.729977
0.731503
0.731503
0.732265
0.731503
0.729977
0.732265
0.732265
0.733791
0.733791
0.732265
0.730740
0.729214
0.731503
0.734554
0.734554
0.736842
0.736842
0.739893
0.740656
0.740656
0.741419
0.741419
0.739893
0.739130
0.741419
0.743707
0.745233
0.745995
0.743707
0.744470
0.745995
0.744470
0.746758
0.744470
0.743707
0.744470
0.747521
0.747521
0.745995
0.743707
0.742182
0.744470
0.748284
0.746758
0.742182
0.737605
0.733791
0.733791
0.730740
0.729977
0.727689
0.727689
0.726163
0.726926
0.729214
0.729214
0.729977
0.727689
0.726163
0.726163
0.728452
0.728452
0.727689
0.727689
0.726163
0.727689
0.727689
0.728452
0.726926
0.726926
0.724638
0.723875
0.721587
0.716247
0.711670
0.708619
0.704805
0.698703
0.694127
0.703280
0.717773
0.729977
0.741419
0.758200
0.780320
0.812357
0.852784
0.884821
0.906941
0.922197
0.929062
0.916095
0.886346
0.844394
0.797101
0.758200
0.728452
0.714722
0.710145
0.711670
0.716247
0.717773
0.720824
0.723875
0.724638
0.720824
0.720061
0.720061
0.718535
0.720061
0.719298
0.720061
0.719298
0.720824
0.721587
0.723112
0.722349
0.719298
0.717010
0.719298
0.720061
0.721587
0.723112
0.720824
0.720824
0.720061
0.721587
0.718535
0.719298
0.718535
0.718535
0.720824
0.722349
0.720824
0.719298
0.717010
0.714722
0.717773
0.719298
0.718535
0.720061
0.718535
0.717773
0.718535
0.720061
0.719298
0.721587
0.721587
0.720061
0.721587
0.721587
0.721587
0.720824
0.717010
0.717010
0.717773
0.718535
0.720824
0.720824
0.720061
0.717773
0.717773
0.720061
0.720061
0.722349
0.721587
0.718535
0.720824
0.721587
0.723112
0.723875
0.721587
0.719298
0.717010
0.717773
0.717773
0.717773
0.714722
0.710145
0.711670
0.710145
0.710908
0.713196
0.711670
0.710145
0.708619
0.711670
0.710908
0.712433
0.711670
0.709382
0.711670
0.713959
0.717010
0.717773
0.717010
0.718535
0.718535
0.724638
0.726163
0.727689
0.727689
0.728452
0.729977
0.732265
0.735317
0.732265
0.733028
0.729214
0.731503
0.735317
0.735317
0.735317
0.733791
0.730740
0.733791
0.734554
0.735317
0.734554
0.733028
0.730740
0.733791
0.734554
0.733791
0.734554
0.733791
0.733791
0.733791
0.735317
0.734554
0.733791
0.733791
0.732265
0.733028
0.730740
0.733028
0.732265
0.729214
0.729214
0.729977
0.730740
0.732265
0.732265
0.731503
0.727689
0.729214
0.729977
0.729977
0.728452
0.727689
0.726163
0.726163
0.728452
0.729977
0.729977
0.729977
0.728452
0.729977
0.729977
0.730740
0.729977
0.729977
0.727689
0.728452
0.726926
0.728452
0.728452
0.726926
0.725401
0.726163
0.726926
0.728452
0.728452
0.728452
0.726163
0.728452
0.729214
0.729977
0.729214
0.728452
0.724638
0.724638
0.726163
0.729214
0.727689
0.725401
0.726926
0.727689
0.729214
0.729214
0.726926
0.726926
0.727689
0.727689
0.729977
0.729214
0.729214
0.730740
0.727689
0.733028
0.735317
0.736842
0.739130
0.738368
0.737605
0.739130
0.739893
0.742182
0.744470
0.742944
0.742182
0.744470
0.746758
0.746758
0.744470
0.742182
0.741419
0.739130
0.741419
0.743707
0.742182
0.740656
0.738368
0.739893
0.742944
0.745233
0.745995
0.743707
0.739893
0.738368
0.738368
0.736842
0.733028
0.729977
0.726926
0.726926
0.726926
0.726163
0.726163
0.723875
0.723112
0.726163
0.726926
0.727689
0.728452
0.724638
0.724638
0.726926
0.726926
0.727689
0.728452
0.726926
0.726926
0.726163
0.726926
0.726926
0.726926
0.726163
0.723875
0.724638
0.721587
0.716247
0.710145
0.706331
0.700992
0.695652
0.695652
0.705568
0.726163
0.747521
0.774218
0.810069
0.853547
0.891686
0.917620
0.917620
0.889397
0.834477
0.772693
0.727689
0.707857
0.706331
0.710145
0.717773
0.719298
0.720824
0.719298
0.717010
0.720824
0.717773
0.720061
0.721587
0.722349
0.720824
0.719298
0.720824
0.720061
0.721587
0.721587
0.720061
0.717773
0.719298
0.721587
0.723112
0.723112
0.719298
0.721587
0.720061
0.721587
0.723112
0.723112
0.719298
0.720061
0.718535
0.720061
0.720824
0.720061
0.720061
0.719298
0.721587
0.723112
0.722349
0.722349
0.721587
0.719298
0.720061
0.720061
0.721587
0.721587
0.718535
0.718535
0.719298
0.720061
0.718535
0.719298
0.718535
0.717773
0.718535
0.719298
0.720824
0.719298
0.720061
0.720061
0.720824
0.719298
0.723112
0.722349
0.721587
0.718535
0.720824
0.721587
0.723112
0.722349
0.719298
0.719298
0.719298
0.720061
0.718535
0.718535
0.717773
0.714722
0.715484
0.717773
0.717010
0.717010
0.713959
0.713959
0.714722
0.714722
0.714722
0.715484
0.713196
0.713196
0.717010
0.716247
0.718535
0.719298
0.720061
0.718535
0.723112
0.724638
0.727689
0.729214
0.726926
0.728452
0.729214
0.733028
0.732265
0.735317
0.735317
0.733028
0.734554
0.735317
0.738368
0.736842
0.736842
0.735317
0.736079
0.736079
0.738368
0.737605
0.736842
0.736079
0.737605
0.738368
0.739130
0.740656
0.738368
0.736079
0.738368
0.738368
0.739130
0.736842
0.736079
0.733791
0.736842
0.736842
0.739130
0.739893
0.736079
0.733028
0.733791
0.735317
0.736079
0.736842
0.735317
0.733028
0.734554
0.735317
0.736842
0.733791
0.733028
0.730740
0.733791
0.734554
0.736079
0.736079
0.734554
0.731503
0.733028
0.733028
0.733791
0.735317
0.733028
0.729977
0.731503
0.731503
0.733028
0.733791
0.732265
0.729977
0.731503
0.733791
0.734554
0.734554
0.732265
0.731503
0.733028
0.733791
0.735317
0.733028
0.731503
0.732265
0.732265
0.732265
0.733791
0.733791
0.733791
0.733028
0.734554
0.737605
0.736079
0.734554
0.733791
0.733028
0.735317
0.733028
0.734554
0.734554
0.731503
0.731503
0.733028
0.735317
0.736079
0.733791
0.733028
0.732265
0.733028
0.733791
0.736079
0.737605
0.739893
0.742944
0.743707
0.745995
0.747521
0.746758
0.745233
0.745995
0.747521
0.749809
0.752098
0.752098
0.752098
0.749809
0.749809
0.749809
0.749046
0.748284
0.746758
0.745995
0.746758
0.747521
0.747521
0.744470
0.744470
0.745995
0.749809
0.751335
0.751335
0.747521
0.743707
0.739130
0.741419
0.739130
0.737605
0.735317
0.735317
0.733791
0.733791
0.732265
0.732265
0.731503
0.729977
0.728452
0.729977
0.729977
0.730740
0.729977
0.728452
0.726163
0.728452
0.729977
0.728452
0.728452
0.726926
0.726163
0.726926
0.729214
0.729214
0.727689
0.727689
0.726926
0.726926
0.726926
0.724638
0.716247
0.710145
0.707857
0.704805
0.700229
0.699466
0.707094
0.720824
0.742182
0.766590
0.795576
0.834477
0.877193
0.909992
0.926774
0.929825
0.906941
0.854310
0.789474
0.739893
0.711670
0.707094
0.713959
0.719298
0.723875
0.723875
0.721587
0.723112
0.726163
0.726926
0.728452
0.725401
0.723875
0.724638
0.724638
0.726926
0.724638
0.723875
0.723112
0.722349
0.723112
0.723112
0.723112
0.722349
0.720824
0.720824
0.721587
0.722349
0.723112
0.723112
0.720824
0.721587
0.723112
0.724638
0.723875
0.722349
0.723112
0.723875
0.725401
0.726163
0.725401
0.725401
0.722349
0.724638
0.725401
0.726926
0.722349
0.720824
0.720824
0.722349
0.724638
0.723112
0.724638
0.723875
0.721587
0.722349
0.723112
0.724638
0.724638
0.722349
0.722349
0.723112
0.722349
0.724638
0.723875
0.723875
0.723112
0.723112
0.726926
0.726163
0.725401
0.724638
0.723112
0.724638
0.723875
0.726163
0.724638
0.723112
0.722349
0.723875
0.723875
0.724638
0.724638
0.722349
0.720061
0.720824
0.722349
0.720824
0.723112
0.720061
0.720061
0.720061
0.721587
0.721587
0.722349
0.720061
0.720061
0.722349
0.723112
0.723112
0.722349
0.722349
0.719298
0.720824
0.723112
0.724638
0.724638
0.723112
0.725401
0.726926
0.729977
0.731503
0.732265
0.732265
0.730740
0.733028
0.735317
0.736079
0.737605
0.736079
0.736842
0.737605
0.739893
0.741419
0.740656
0.739130
0.738368
0.739130
0.739893
0.739893
0.741419
0.739893
0.738368
0.737605
0.739130
0.740656
0.739893
0.737605
0.737605
0.737605
0.739130
0.738368
0.739130
0.737605
0.736079
0.736079
0.737605
0.738368
0.739893
0.737605
0.739130
0.736842
0.737605
0.738368
0.736842
0.735317
0.733791
0.733791
0.733791
0.735317
0.735317
0.733028
0.731503
0.733028
0.734554
0.733791
0.733791
0.733028
0.730740
0.731503
0.732265
0.732265
0.733028
0.731503
0.730740
0.729977
0.731503
0.732265
0.732265
0.733028
0.732265
0.733791
0.733791
0.735317
0.734554
0.732265
0.729214
0.729977
0.730740
0.732265
0.730740
0.730740
0.729977
0.729214
0.729977
0.731503
0.729214
0.728452
0.729214
0.729214
0.731503
0.729214
0.729977
0.729214
0.727689
0.729214
0.730740
0.730740
0.731503
0.729977
0.729214
0.729977
0.733028
0.733028
0.733791
0.732265
0.730740
0.732265
0.734554
0.733791
0.734554
0.736079
0.732265
0.734554
0.736842
0.737605
0.737605
0.737605
0.737605
0.740656
0.742944
0.742944
0.742944
0.742944
0.742944
0.742944
0.745995
0.748284
0.746758
0.746758
0.745995
0.745995
0.746758
0.748284
0.748284
0.745995
0.742944
0.744470
0.745995
0.745995
0.744470
0.742944
0.742182
0.747521
0.750572
0.750572
0.746758
0.740656
0.736842
0.736842
0.735317
0.733791
0.731503
0.729977
0.729214
0.727689
0.729214
0.729214
0.728452
0.730740
0.727689
0.728452
0.728452
0.729214
0.727689
0.726926
0.726926
0.726926
0.728452
0.729214
0.729214
0.726926
0.726163
0.726163
0.726926
0.728452
0.728452
0.726163
0.724638
0.723875
0.724638
0.723112
0.717010
0.710145
0.707094
0.702517
0.697940
0.693364
0.697940
0.712433
0.731503
0.751335
0.774218
0.806255
0.845919
0.881007
0.904653
0.914569
0.905416
0.871091
0.814645
0.758200
0.723112
0.709382
0.710145
0.716247
0.722349
0.723875
0.720824
0.722349
0.723875
0.726926
0.724638
0.726163
0.725401
0.724638
0.724638
0.726163
0.725401
0.723875
0.723112
0.724638
0.724638
0.724638
0.723112
0.722349
0.720824
0.721587
0.723112
0.723875
0.723875
0.720824
0.720061
0.720824
0.724638
0.724638
0.724638
0.725401
0.721587
0.722349
0.723875
0.726163
0.723112
0.721587
0.721587
0.722349
0.723875
0.723875
0.723875
0.723112
0.721587
0.723112
0.725401
0.723112
0.723112
0.722349
0.721587
0.721587
0.723112
0.723112
0.722349
0.720824
0.720061
0.722349
0.723112
0.726163
0.724638
0.723875
0.724638
0.722349
0.724638
0.725401
0.726163
0.725401
0.723875
0.723112
0.725401
0.724638
0.726163
0.724638
0.720824
0.722349
0.722349
0.721587
0.721587
0.721587
0.718535
0.721587
0.723112
0.721587
0.723112
0.720824
0.719298
0.719298
0.720824
0.721587
0.721587
0.718535
0.717773
0.721587
0.723112
0.721587
0.722349
0.721587
0.721587
0.723112
0.726163
0.726926
0.728452
0.729214
0.728452
0.730740
0.732265
0.733028
0.735317
0.734554
0.732265
0.735317
0.739130
0.739130
0.739130
0.739130
0.738368
0.737605
0.739130
0.739130
0.738368
0.736079
0.734554
0.734554
0.735317
0.736842
0.737605
0.736079
0.733791
0.735317
0.735317
0.736079
0.735317
0.734554
0.733791
0.733028
0.734554
0.733791
0.733791
0.733028
0.732265
0.734554
0.736842
0.737605
0.736079
0.735317
0.733028
0.733791
0.733028
0.732265
0.732265
0.730740
0.729214
0.732265
0.733791
0.732265
0.732265
0.730740
0.728452
0.729214
0.730740
0.730740
0.732265
0.730740
0.731503
0.731503
0.732265
0.733028
0.732265
0.730740
0.728452
0.732265
0.733028
0.733028
0.732265
0.731503
0.729977
0.729214
0.730740
0.731503
0.733028
0.729977
0.728452
0.729214
0.731503
0.732265
0.730740
0.728452
0.729214
0.730740
0.729214
0.731503
0.733028
0.733791
0.731503
0.733028
0.730740
0.733028
0.732265
0.731503
0.730740
0.730740
0.733028
0.733791
0.734554
0.733791
0.733791
0.735317
0.737605
0.739130
0.739893
0.739893
0.738368
0.740656
0.742182
0.742944
0.743707
0.742944
0.743707
0.746758
0.748284
0.747521
0.747521
0.745995
0.745233
0.744470
0.744470
0.745995
0.746758
0.744470
0.739893
0.742944
0.742182
0.745233
0.746758
0.748284
0.744470
0.741419
0.739130
0.737605
0.733028
0.732265
0.728452
0.727689
0.727689
0.726163
0.725401
0.726926
0.726163
0.726163
0.726163
0.727689
0.728452
0.726926
0.723875
0.725401
0.727689
0.728452
0.729214
0.729977
0.726926
0.725401
0.727689
0.728452
0.728452
0.726926
0.724638
0.724638
0.725401
0.726163
0.722349
0.717773
0.711670
0.710145
0.710908
0.708619
0.705568
0.696415
0.691838
0.697178
0.710908
0.728452
0.749809
0.774981
0.810069
0.850496
0.884821
0.909230
0.915332
0.891686
0.842105
0.781083
0.738368
0.714722
0.703280
0.707094
0.710908
0.715484
0.719298
0.718535
0.718535
0.717773
0.719298
0.717773
0.720824
0.721587
0.720824
0.719298
0.718535
0.718535
0.720824
0.721587
0.720061
0.720061
0.720824
0.720061
0.722349
0.722349
0.720824
0.718535
0.717010
0.718535
0.720061
0.721587
0.718535
0.717773
0.716247
0.716247
0.719298
0.720061
0.716247
0.717773
0.717773
0.718535
0.719298
0.720061
0.718535
0.719298
0.717773
0.718535
0.720061
0.720824
0.720061
0.719298
0.719298
0.717773
0.719298
0.720061
0.719298
0.718535
0.717010
0.717773
0.720061
0.720824
0.720061
0.717773
0.717010
0.718535
0.720061
0.720824
0.720061
0.717773
0.718535
0.717773
0.717773
0.719298
0.718535
0.717010
0.713959
0.715484
0.715484
0.716247
0.714722
0.714722
0.713959
0.712433
0.712433
0.712433
0.710145
0.709382
0.707094
0.710145
0.711670
0.712433
0.712433
0.709382
0.707094
0.710908
0.713196
0.714722
0.716247
0.715484
0.715484
0.717773
0.722349
0.725401
0.723875
0.726163
0.726163
0.727689
0.729977
0.729977
0.731503
0.729977
0.729977
0.729977
0.733791
0.733791
0.733028
0.733028
0.732265
0.733028
0.736079
0.736079
0.735317
0.734554
0.730740
0.731503
0.733028
0.731503
0.732265
0.730740
0.729977
0.729977
0.730740
0.734554
0.731503
0.731503
0.731503
0.731503
0.733791
0.734554
0.733028
0.731503
0.730740
0.731503
0.731503
0.729214
0.729214
0.729214
0.728452
0.729214
0.731503
0.730740
0.732265
0.731503
0.729214
0.729214
0.729977
0.729214
0.727689
0.726926
0.726163
0.727689
0.728452
0.728452
0.726163
0.726926
0.724638
0.725401
0.727689
0.726163
0.727689
0.726163
0.724638
0.726163
0.726926
0.728452
0.728452
0.727689
0.727689
0.728452
0.729977
0.730740
0.729214
0.728452
0.727689
0.728452
0.728452
0.729214
0.729214
0.728452
0.726163
0.727689
0.728452
0.729977
0.728452
0.728452
0.726926
0.728452
0.729977
0.731503
0.732265
0.734554
0.734554
0.735317
0.737605
0.738368
0.740656
0.739130
0.739893
0.743707
0.744470
0.745995
0.745233
0.745995
0.743707
0.743707
0.744470
0.742944
0.742182
0.742182
0.739893
0.740656
0.740656
0.740656
0.742182
0.742944
0.745233
0.745995
0.742944
0.741419
0.738368
0.734554
0.729214
0.730740
0.729977
0.730740
0.728452
0.727689
0.726163
0.726163
0.726163
0.725401
0.725401
0.726926
0.725401
0.726163
0.726163
0.726163
0.726926
0.723875
0.723875
0.725401
0.726163
0.724638
0.726163
0.723112
0.721587
0.722349
0.722349
0.725401
0.723875
0.723875
0.720061
0.720824
0.715484
0.710908
0.707857
0.703280
0.694127
0.691838
0.702517
0.722349
0.744470
0.768116
0.800153
0.842868
0.884058
0.913044
0.923722
0.909230
0.865751
0.802441
0.750572
0.719298
0.707094
0.707094
0.712433
0.722349
0.722349
0.722349
0.721587
0.722349
0.720824
0.721587
0.722349
0.722349
0.721587
0.720824
0.721587
0.721587
0.720824
0.723112
0.722349
0.721587
0.719298
0.720061
0.720824
0.721587
0.721587
0.721587
0.719298
0.723875
0.721587
0.723112
0.721587
0.722349
0.721587
0.722349
0.724638
0.725401
0.725401
0.723112
0.721587
0.721587
0.722349
0.723875
0.723112
0.721587
0.721587
0.720824
0.723875
0.722349
0.722349
0.720061
0.721587
0.722349
0.722349
0.723875
0.723112
0.720824
0.719298
0.722349
0.723112
0.723875
0.723112
0.723112
0.721587
0.721587
0.723112
0.726926
0.726926
0.724638
0.722349
0.723875
0.722349
0.723875
0.721587
0.721587
0.720061
0.720061
0.722349
0.721587
0.721587
0.719298
0.717773
0.719298
0.719298
0.719298
0.718535
0.716247
0.715484
0.717010
0.719298
0.718535
0.718535
0.718535
0.718535
0.720061
0.722349
0.724638
0.723875
0.726163
0.725401
0.726926
0.729977
0.733028
0.733028
0.733791
0.733028
0.736079
0.736842
0.739893
0.737605
0.736842
0.736842
0.738368
0.739130
0.742182
0.739893
0.739130
0.739130
0.738368
0.742182
0.743707
0.741419
0.742182
0.740656
0.741419
0.741419
0.744470
0.742944
0.741419
0.739130
0.740656
0.741419
0.741419
0.737605
0.737605
0.738368
0.737605
0.737605
0.740656
0.738368
0.739130
0.736079
0.736079
0.738368
0.739130
0.738368
0.737605
0.733791
0.734554
0.738368
0.736842
0.737605
0.736842
0.735317
0.733791
0.736079
0.736079
0.736842
0.733028
0.733791
0.733791
0.733028
0.734554
0.733791
0.732265
0.731503
0.733791
0.734554
0.733791
0.734554
0.733028
0.733028
0.734554
0.734554
0.735317
0.735317
0.733028
0.732265
0.734554
0.736079
0.735317
0.734554
0.735317
0.732265
0.733791
0.734554
0.736079
0.735317
0.733791
0.731503
0.733028
0.733028
0.735317
0.735317
0.733791
0.732265
0.733028
0.734554
0.735317
0.735317
0.735317
0.735317
0.737605
0.741419
0.743707
0.744470
0.743707
0.742944
0.744470
0.743707
0.745995
0.747521
0.745995
0.745233
0.745995
0.749809
0.750572
0.751335
0.749046
0.748284
0.749809
0.749809
0.749809
0.749046
0.746758
0.745995
0.746758
0.747521
0.747521
0.748284
0.750572
0.752098
0.752098
0.749809
0.746758
0.742944
0.739893
0.735317
0.734554
0.732265
0.732265
0.731503
0.729977
0.729214
0.729977
0.728452
0.730740
0.730740
0.728452
0.728452
0.727689
0.729977
0.729977
0.729977
0.729214
0.728452
0.729214
0.732265
0.731503
0.731503
0.729977
0.728452
0.727689
0.720824
0.715484
0.710908
0.704043
0.697940
0.693364
0.695652
0.711670
0.730740
0.745233
0.761251
0.781083
0.805492
0.834477
0.864226
0.887872
0.905416
0.922960
0.938978
0.941266
0.921434
0.868040
0.798627
0.743707
0.717010
0.716247
0.721587
0.726926
0.726163
0.725401
0.726926
0.727689
0.726163
0.725401
0.721587
0.722349
0.723875
0.724638
0.724638
0.723112
0.720824
0.722349
0.723875
0.725401
0.724638
0.722349
0.720061
0.722349
0.722349
0.724638
0.723875
0.722349
0.720824
0.721587
0.724638
0.726163
0.726163
0.725401
0.724638
0.724638
0.725401
0.726926
0.726163
0.724638
0.723112
0.723112
0.725401
0.724638
0.725401
0.723112
0.721587
0.723112
0.723112
0.725401
0.725401
0.723875
0.722349
0.722349
0.723875
0.726163
0.726926
0.724638
0.723875
0.724638
0.724638
0.726926
0.725401
0.726163
0.722349
0.722349
0.723112
0.726163
0.725401
0.723875
0.723112
0.724638
0.724638
0.724638
0.726163
0.722349
0.720824
0.723112
0.723875
0.725401
0.723875
0.722349
0.721587
0.723875
0.724638
0.724638
0.724638
0.724638
0.722349
0.723112
0.722349
0.724638
0.724638
0.724638
0.723112
0.724638
0.728452
0.729214
0.731503
0.729977
0.731503
0.734554
0.736079
0.736079
0.735317
0.735317
0.734554
0.736079
0.738368
0.737605
0.739130
0.740656
0.738368
0.739130
0.742182
0.740656
0.741419
0.740656
0.737605
0.737605
0.739130
0.741419
0.740656
0.737605
0.737605
0.736842
0.739130
0.739130
0.740656
0.739130
0.734554
0.736842
0.737605
0.737605
0.739130
0.736079
0.735317
0.738368
0.738368
0.739893
0.738368
0.736079
0.735317
0.733791
0.733028
0.734554
0.734554
0.729977
0.729977
0.732265
0.732265
0.733791
0.732265
0.730740
0.730740
0.730740
0.730740
0.733791
0.733028
0.732265
0.729977
0.730740
0.733028
0.733791
0.733028
0.730740
0.729214
0.729977
0.729214
0.734554
0.732265
0.730740
0.729214
0.729977
0.732265
0.732265
0.730740
0.730740
0.729977
0.731503
0.733028
0.732265
0.733028
0.732265
0.733791
0.733791
0.733791
0.734554
0.735317
0.733791
0.733791
0.735317
0.737605
0.736842
0.739130
0.739130
0.739130
0.739893
0.742182
0.744470
0.743707
0.744470
0.743707
0.743707
0.747521
0.749809
0.752098
0.751335
0.752098
0.750572
0.751335
0.750572
0.749046
0.748284
0.747521
0.749046
0.749046
0.750572
0.749046
0.747521
0.748284
0.747521
0.745233
0.746758
0.746758
0.747521
0.750572
0.749809
0.745995
0.742944
0.741419
0.737605
0.735317
0.733028
0.730740
0.731503
0.729977
0.729214
0.728452
0.730740
0.732265
0.732265
0.731503
0.729977
0.729977
0.729977
0.730740
0.730740
0.729977
0.727689
0.726926
0.727689
0.728452
0.729214
0.727689
0.726163
0.721587
0.720061
0.714722
0.710145
0.707857
0.702517
0.694127
0.692601
0.701754
0.720061
0.742944
0.766590
0.796339
0.841342
0.881770
0.907704
0.915332
0.897025
0.851259
0.791762
0.744470
0.716247
0.707094
0.707857
0.715484
0.720061
0.720824
0.720061
0.720061
0.720824
0.721587
0.723875
0.725401
0.724638
0.722349
0.720824
0.719298
0.721587
0.721587
0.722349
0.723112
0.720824
0.720061
0.723112
0.723112
0.723875
0.722349
0.720824
0.719298
0.720061
0.720824
0.720824
0.723112
0.720824
0.721587
0.720824
0.720061
0.721587
0.722349
0.721587
0.720061
0.721587
0.723112
0.723112
0.722349
0.723112
0.722349
0.724638
0.723875
0.724638
0.724638
0.723875
0.722349
0.722349
0.723875
0.722349
0.723112
0.720061
0.719298
0.720061
0.722349
0.723112
0.723875
0.720824
0.719298
0.719298
0.720824
0.721587
0.723112
0.722349
0.720824
0.723875
0.723875
0.723112
0.722349
0.723875
0.722349
0.722349
0.723875
0.723112
0.720061
0.719298
0.717773
0.718535
0.717773
0.720061
0.718535
0.718535
0.717773
0.717773
0.717773
0.717773
0.717773
0.716247
0.713196
0.715484
0.717010
0.717773
0.720061
0.718535
0.719298
0.722349
0.723875
0.727689
0.727689
0.727689
0.726926
0.729977
0.730740
0.734554
0.733791
0.731503
0.731503
0.733028
0.733028
0.733791
0.733791
0.734554
0.733028
0.732265
0.733791
0.734554
0.734554
0.734554
0.733791
0.736079
0.736079
0.736842
0.737605
0.737605
0.734554
0.734554
0.736079
0.736842
0.736079
0.736079
0.734554
0.734554
0.735317
0.735317
0.735317
0.732265
0.732265
0.731503
0.732265
0.732265
0.734554
0.731503
0.732265
0.733028
0.732265
0.733791
0.733028
0.733791
0.733028
0.733028
0.733028
0.734554
0.733791
0.733028
0.731503
0.730740
0.730740
0.731503
0.731503
0.730740
0.727689
0.727689
0.730740
0.731503
0.730740
0.727689
0.726163
0.727689
0.729214
0.730740
0.730740
0.730740
0.727689
0.727689
0.729214
0.731503
0.732265
0.730740
0.729977
0.727689
0.729214
0.728452
0.729214
0.730740
0.729977
0.729214
0.732265
0.731503
0.730740
0.727689
0.727689
0.729977
0.732265
0.733791
0.734554
0.736079
0.736079
0.739130
0.739893
0.742182
0.740656
0.742944
0.742944
0.742944
0.746758
0.747521
0.747521
0.745995
0.742944
0.742944
0.742944
0.745233
0.745995
0.743707
0.744470
0.745233
0.745233
0.745995
0.742182
0.741419
0.739130
0.740656
0.742182
0.745995
0.746758
0.744470
0.739893
0.737605
0.736079
0.734554
0.732265
0.726926
0.725401
0.726163
0.725401
0.726926
0.726926
0.726163
0.725401
0.725401
0.726926
0.728452
0.726926
0.724638
0.722349
0.724638
0.727689
0.727689
0.728452
0.726163
0.724638
0.724638
0.726163
0.728452
0.726163
0.725401
0.722349
0.721587
0.719298
0.715484
0.712433
0.709382
0.702517
0.697178
0.694889
0.704043
0.717010
0.736079
0.761251
0.793288
0.836003
0.875667
0.908467
0.921434
0.907704
0.864226
0.805492
0.753623
0.720824
0.706331
0.702517
0.709382
0.716247
0.718535
0.718535
0.717773
0.718535
0.719298
0.720824
0.720824
0.720824
0.719298
0.718535
0.720061
0.719298
0.720824
0.720061
0.718535
0.717010
0.717773
0.717773
0.719298
0.718535
0.715484
0.713196
0.713196
0.716247
0.717773
0.717010
0.717010
0.716247
0.717010
0.716247
0.718535
0.717773
0.714722
0.713959
0.714722
0.717773
0.717773
0.718535
0.718535
0.717010
0.715484
0.714722
0.716247
0.717010
0.717010
0.716247
0.716247
0.716247
0.717010
0.716247
0.716247
0.716247
0.717010
0.717773
0.717773
0.717773
0.717010
0.715484
0.716247
0.717010
0.717773
0.717010
0.717010
0.715484
0.717010
0.717010
0.718535
0.719298
0.716247
0.714722
0.713959
0.717010
0.717773
0.715484
0.713959
0.712433
0.712433
0.713196
0.713196
0.713196
0.710145
0.708619
0.706331
0.707857
0.708619
0.707857
0.707094
0.706331
0.707094
0.708619
0.711670
0.710145
0.710908
0.709382
0.711670
0.712433
0.714722
0.715484
0.715484
0.717010
0.717773
0.721587
0.722349
0.723875
0.723875
0.723875
0.726163
0.728452
0.729977
0.730740
0.728452
0.729214
0.729977
0.730740
0.731503
0.732265
0.730740
0.729977
0.731503
0.732265
0.733791
0.734554
0.731503
0.730740
0.731503
0.732265
0.734554
0.732265
0.732265
0.729214
0.731503
0.731503
0.730740
0.730740
0.728452
0.726926
0.727689
0.730740
0.731503
0.729977
0.729977
0.726163
0.727689
0.728452
0.726926
0.726163
0.727689
0.724638
0.727689
0.726926
0.727689
0.727689
0.727689
0.725401
0.726926
0.726163
0.727689
0.726163
0.725401
0.723875
0.725401
0.723875
0.725401
0.723112
0.723112
0.720824
0.722349
0.723875
0.724638
0.723875
0.723875
0.722349
0.723875
0.723875
0.726163
0.724638
0.723875
0.723112
0.723875
0.725401
0.726163
0.726163
0.725401
0.723112
0.723112
0.723875
0.726926
0.725401
0.724638
0.722349
0.723875
0.726163
0.725401
0.725401
0.723112
0.723112
0.724638
0.726163
0.726163
0.727689
0.726163
0.725401
0.727689
0.728452
0.729977
0.731503
0.732265
0.730740
0.732265
0.735317
0.735317
0.736079
0.734554
0.736079
0.737605
0.739893
0.739893
0.742182
0.740656
0.739893
0.739130
0.740656
0.739130
0.739893
0.737605
0.736079
0.736079
0.737605
0.739130
0.738368
0.735317
0.736842
0.737605
0.742182
0.744470
0.739893
0.735317
0.729214
0.729214
0.727689
0.726163
0.723112
0.721587
0.719298
0.720061
0.722349
0.722349
0.722349
0.719298
0.718535
0.719298
0.721587
0.720061
0.720824
0.717773
0.717773
0.719298
0.720824
0.721587
0.721587
0.719298
0.717773
0.717773
0.720061
0.719298
0.715484
0.707857
0.700992
0.697178
0.694127
0.690313
0.682685
0.683448
0.694127
0.713959
0.729977
0.742944
0.758200
0.778795
0.805492
0.843631
0.882532
0.911518
0.926774
0.919909
0.879481
0.813882
0.751335
0.713196
0.698703
0.703280
0.707094
0.714722
0.713196
0.713959
0.713959
0.713959
0.712433
0.711670
0.711670
0.712433
0.711670
0.710908
0.709382
0.710145
0.712433
0.713959
0.712433
0.713196
0.710908
0.710908
0.713959
0.713196
0.713196
0.712433
0.711670
0.712433
0.711670
0.714722
0.711670
0.712433
0.711670
0.711670
0.713196
0.713959
0.714722
0.714722
0.712433
0.713196
0.715484
0.713959
0.712433
0.712433
0.711670
0.710908
0.713959
0.714722
0.713196
0.711670
0.710908
0.711670
0.713959
0.713196
0.713959
0.712433
0.710145
0.712433
0.711670
0.713959
0.713959
0.712433
0.708619
0.711670
0.712433
0.712433
0.713959
0.713959
0.711670
0.713959
0.713959
0.714722
0.713959
0.713196
0.711670
0.712433
0.713959
0.714722
0.712433
0.713196
0.711670
0.712433
0.713196
0.713196
0.711670
0.709382
0.709382
0.707857
0.710145
0.711670
0.711670
0.710145
0.709382
0.709382
0.711670
0.711670
0.710908
0.712433
0.711670
0.713196
0.714722
0.718535
0.717010
0.717010
0.716247
0.718535
0.721587
0.724638
0.724638
0.723875
0.723112
0.726163
0.727689
0.727689
0.729977
0.729214
0.726926
0.726926
0.729214
0.730740
0.728452
0.727689
0.728452
0.728452
0.730740
0.733028
0.731503
0.729214
0.729214
0.729214
0.729214
0.729977
0.728452
0.727689
0.724638
0.727689
0.728452
0.729977
0.726926
0.725401
0.726163
0.725401
0.726163
0.727689
0.726926
0.726926
0.723875
0.723875
0.724638
0.726926
0.726926
0.723875
0.723875
0.722349
0.725401
0.726163
0.725401
0.721587
0.721587
0.722349
0.723112
0.722349
0.721587
0.721587
0.719298
0.721587
0.720824
0.721587
0.720824
0.718535
0.717773
0.717773
0.719298
0.720824
0.719298
0.717773
0.717010
0.718535
0.717010
0.720061
0.720061
0.719298
0.717773
0.717010
0.720061
0.720824
0.722349
0.719298
0.718535
0.718535
0.719298
0.720824
0.719298
0.718535
0.718535
0.717773
0.717773
0.719298
0.720824
0.719298
0.718535
0.718535
0.720061
0.720824
0.720824
0.720824
0.719298
0.721587
0.724638
0.725401
0.726926
0.726926
0.726926
0.727689
0.729214
0.730740
0.731503
0.729214
0.728452
0.728452
0.731503
0.735317
0.734554
0.734554
0.732265
0.735317
0.733028
0.736079
0.734554
0.732265
0.730740
0.732265
0.735317
0.736079
0.733791
0.731503
0.732265
0.735317
0.738368
0.736079
0.730740
0.725401
0.722349
0.721587
0.720824
0.720824
0.718535
0.717010
0.713959
0.715484
0.717010
0.717773
0.718535
0.715484
0.714722
0.715484
0.715484
0.717010
0.717010
0.713959
0.713196
0.715484
0.715484
0.716247
0.715484
0.715484
0.713196
0.713959
0.711670
0.715484
0.713959
0.711670
0.707857
0.703280
0.697940
0.694889
0.692601
0.684211
0.679634
0.684973
0.703280
0.726926
0.750572
0.777269
0.817696
0.863463
0.896262
0.909992
0.902365
0.864989
0.799390
0.737605
0.701754
0.691838
0.695652
0.701754
0.704805
0.709382
0.708619
0.709382
0.710908
0.707857
0.707094
0.707094
0.709382
0.710145
0.708619
0.707857
0.706331
0.707094
0.708619
0.709382
0.708619
0.706331
0.705568
0.705568
0.705568
0.707857
0.706331
0.707094
0.705568
0.706331
0.707094
0.707857
0.708619
0.707094
0.706331
0.707094
0.707857
0.708619
0.707094
0.707094
0.703280
0.705568
0.706331
0.707094
0.708619
0.708619
0.705568
0.708619
0.708619
0.708619
0.709382
0.705568
0.705568
0.705568
0.706331
0.709382
0.707094
0.705568
0.704043
0.705568
0.706331
0.706331
0.707857
0.706331
0.704805
0.705568
0.706331
0.708619
0.707857
0.706331
0.704805
0.707857
0.707094
0.708619
0.707857
0.707857
0.707857
0.709382
0.710145
0.710908
0.708619
0.708619
0.707857
0.706331
0.707857
0.709382
0.707857
0.705568
0.704043
0.704043
0.707094
0.707094
0.707094
0.705568
0.704043
0.704043
0.706331
0.707094
0.704805
0.706331
0.704805
0.707857
0.709382
0.713196
0.712433
0.712433
0.712433
0.716247
0.719298
0.722349
0.722349
0.720824
0.721587
0.722349
0.723875
0.724638
0.723875
0.722349
0.721587
0.721587
0.722349
0.724638
0.724638
0.721587
0.722349
0.722349
0.722349
0.723875
0.723875
0.723112
0.721587
0.724638
0.723112
0.725401
0.724638
0.723875
0.721587
0.723112
0.725401
0.725401
0.724638
0.723875
0.720824
0.721587
0.721587
0.723112
0.721587
0.719298
0.717773
0.717773
0.718535
0.720824
0.720824
0.718535
0.717010
0.718535
0.717773
0.720061
0.717010
0.716247
0.715484
0.715484
0.716247
0.718535
0.718535
0.718535
0.716247
0.716247
0.718535
0.718535
0.717010
0.717010
0.713196
0.712433
0.714722
0.715484
0.715484
0.713959
0.712433
0.713196
0.713959
0.717010
0.717010
0.715484
0.713196
0.713196
0.714722
0.716247
0.716247
0.713196
0.712433
0.713196
0.714722
0.716247
0.717010
0.715484
0.715484
0.715484
0.717010
0.719298
0.717773
0.717010
0.716247
0.716247
0.717010
0.716247
0.717010
0.716247
0.713959
0.713959
0.716247
0.717010
0.717010
0.717773
0.716247
0.720061
0.723112
0.725401
0.724638
0.724638
0.725401
0.726926
0.728452
0.730740
0.732265
0.732265
0.730740
0.731503
0.733028
0.733028
0.733028
0.731503
0.729214
0.728452
0.729977
0.731503
0.729977
0.726926
0.723112
0.726163
0.728452
0.734554
0.736079
0.733028
0.729977
0.725401
0.724638
0.723875
0.722349
0.719298
0.715484
0.715484
0.715484
0.715484
0.714722
0.712433
0.710908
0.710908
0.710908
0.711670
0.712433
0.712433
0.710145
0.709382
0.709382
0.710908
0.708619
0.707857
0.706331
0.707857
0.710145
0.710145
0.707857
0.707094
0.705568
0.705568
0.706331
0.706331
0.700992
0.696415
0.689550
0.688024
0.686499
0.681159
0.677346
0.681159
0.693364
0.713196
0.733791
0.761251
0.800153
0.841342
0.872616
0.891686
0.890160
0.861938
0.809306
0.751335
0.711670
0.691075
0.687262
0.691838
0.697940
0.699466
0.699466
0.699466
0.700992
0.704043
0.702517
0.704043
0.702517
0.702517
0.706331
0.705568
0.704805
0.706331
0.701754
0.703280
0.701754
0.704043
0.704043
0.704043
0.702517
0.702517
0.704805
0.703280
0.702517
0.700992
0.700229
0.700992
0.699466
0.701754
0.700992
0.701754
0.700229
0.701754
0.701754
0.703280
0.702517
0.703280
0.700229
0.700229
0.701754
0.703280
0.704043
0.700992
0.700229
0.700992
0.703280
0.705568
0.704805
0.703280
0.701754
0.701754
0.702517
0.704043
0.704805
0.703280
0.701754
0.704043
0.702517
0.703280
0.701754
0.704043
0.704043
0.702517
0.700992
0.704805
0.705568
0.705568
0.704043
0.705568
0.706331
0.708619
0.706331
0.705568
0.703280
0.704043
0.704805
0.704805
0.704805
0.704043
0.702517
0.704043
0.704043
0.702517
0.703280
0.700992
0.699466
0.699466
0.698703
0.701754
0.698703
0.698703
0.695652
0.697178
0.698703
0.697940
0.698703
0.697940
0.697178
0.696415
0.700229
0.701754
0.702517
0.704805
0.704043
0.704043
0.707094
0.710145
0.709382
0.710908
0.710908
0.711670
0.714722
0.715484
0.716247
0.715484
0.713959
0.713959
0.714722
0.718535
0.718535
0.717773
0.717010
0.718535
0.720061
0.720824
0.721587
0.719298
0.718535
0.719298
0.721587
0.720061
0.719298
0.717773
0.717773
0.717773
0.718535
0.720061
0.718535
0.718535
0.716247
0.717773
0.720824
0.719298
0.720061
0.717773
0.717010
0.716247
0.718535
0.720061
0.719298
0.717010
0.717010
0.717773
0.718535
0.718535
0.717010
0.716247
0.713959
0.714722
0.715484
0.715484
0.715484
0.715484
0.713196
0.712433
0.714722
0.716247
0.717010
0.716247
0.715484
0.711670
0.712433
0.713959
0.715484
0.713959
0.713959
0.713959
0.715484
0.717010
0.717773
0.716247
0.712433
0.711670
0.712433
0.713196
0.714722
0.714722
0.712433
0.712433
0.713196
0.715484
0.716247
0.712433
0.710908
0.713196
0.713959
0.716247
0.717010
0.713196
0.712433
0.714722
0.716247
0.718535
0.717010
0.713959
0.713196
0.714722
0.715484
0.715484
0.716247
0.715484
0.716247
0.718535
0.718535
0.723112
0.725401
0.724638
0.720061
0.721587
0.724638
0.726926
0.727689
0.726163
0.723112
0.724638
0.726926
0.730740
0.731503
0.731503
0.730740
0.732265
0.732265
0.733028
0.732265
0.729214
0.726926
0.727689
0.729214
0.729214
0.726163
0.724638
0.722349
0.724638
0.729214
0.731503
0.729977
0.723112
0.721587
0.718535
0.717010
0.717010
0.713959
0.712433
0.710908
0.713196
0.711670
0.714722
0.713196
0.712433
0.710908
0.710145
0.710908
0.711670
0.711670
0.710145
0.707857
0.710145
0.711670
0.711670
0.709382
0.709382
0.708619
0.707094
0.709382
0.707857
0.710908
0.707857
0.707094
0.707094
0.705568
0.700992
0.698703
0.694127
0.690313
0.684211
0.678871
0.684973
0.698703
0.717773
0.738368
0.768879
0.806255
0.847445
0.884058
0.903127
0.907704
0.881770
0.833715
0.774981
0.727689
0.700229
0.688787
0.685736
0.691075
0.697940
0.701754
0.703280
0.700229
0.702517
0.704805
0.705568
0.705568
0.704043
0.704043
0.704043
0.705568
0.704805
0.704805
0.704805
0.701754
0.704043
0.705568
0.705568
0.704805
0.703280
0.702517
0.703280
0.704805
0.707857
0.704805
0.704043
0.701754
0.702517
0.704043
0.706331
0.703280
0.704043
0.704805
0.704043
0.706331
0.707857
0.706331
0.707094
0.704805
0.704805
0.706331
0.707094
0.705568
0.704043
0.704043
0.703280
0.704805
0.706331
0.706331
0.704805
0.703280
0.702517
0.705568
0.705568
0.706331
0.702517
0.703280
0.704043
0.705568
0.705568
0.707094
0.706331
0.703280
0.705568
0.707094
0.707857
0.707857
0.705568
0.703280
0.701754
0.703280
0.704043
0.702517
0.701754
0.698703
0.698703
0.701754
0.700229
0.699466
0.698703
0.696415
0.696415
0.698703
0.698703
0.697940
0.698703
0.697178
0.698703
0.700229
0.700229
0.700992
0.700992
0.701754
0.703280
0.705568
0.707857
0.710145
0.709382
0.710145
0.711670
0.713959
0.717773
0.717773
0.718535
0.718535
0.721587
0.721587
0.723112
0.723112
0.721587
0.720824
0.722349
0.723112
0.725401
0.723875
0.722349
0.723875
0.723112
0.724638
0.725401
0.724638
0.723112
0.720061
0.720824
0.721587
0.722349
0.720824
0.720061
0.718535
0.718535
0.720061
0.721587
0.720824
0.720824
0.719298
0.719298
0.720824
0.722349
0.720061
0.718535
0.718535
0.718535
0.720061
0.722349
0.720824
0.720824
0.720061
0.719298
0.721587
0.722349
0.719298
0.717773
0.717010
0.717773
0.718535
0.718535
0.719298
0.717010
0.714722
0.715484
0.715484
0.717010
0.718535
0.716247
0.713959
0.713196
0.717773
0.717773
0.717010
0.717010
0.713196
0.716247
0.718535
0.717773
0.717010
0.718535
0.717010
0.719298
0.720061
0.721587
0.721587
0.720824
0.718535
0.719298
0.720824
0.720824
0.720824
0.719298
0.717010
0.717010
0.719298
0.720824
0.721587
0.718535
0.717773
0.717773
0.718535
0.721587
0.721587
0.720061
0.720824
0.720824
0.723875
0.724638
0.728452
0.727689
0.729214
0.730740
0.732265
0.735317
0.734554
0.732265
0.732265
0.733791
0.737605
0.739130
0.738368
0.736842
0.736079
0.734554
0.735317
0.735317
0.733791
0.733028
0.731503
0.734554
0.734554
0.733028
0.733028
0.733791
0.734554
0.739130
0.742182
0.741419
0.736079
0.731503
0.729214
0.727689
0.727689
0.726163
0.723875
0.723112
0.719298
0.720061
0.719298
0.721587
0.719298
0.717773
0.716247
0.717010
0.717773
0.717010
0.718535
0.716247
0.716247
0.715484
0.718535
0.718535
0.720061
0.717010
0.715484
0.716247
0.717773
0.715484
0.712433
0.706331
0.698703
0.697178
0.694127
0.690313
0.688787
0.696415
0.716247
0.742182
0.768879
0.805492
0.848970
0.888635
0.916095
0.934401
0.940503
0.929825
0.893974
0.834477
0.770404
0.719298
0.697178
0.695652
0.699466
0.704805
0.711670
0.711670
0.713196
0.713196
0.713959
0.711670
0.710145
0.710145
0.710145
0.710145
0.710145
0.707857
0.707094
0.707857
0.709382
0.709382
0.710908
0.710908
0.708619
0.708619
0.709382
0.711670
0.711670
0.710908
0.710908
0.710908
0.711670
0.712433
0.712433
0.711670
0.708619
0.710145
0.710145
0.712433
0.712433
0.711670
0.707857
0.709382
0.713196
0.714722
0.713959
0.712433
0.710908
0.710908
0.713196
0.715484
0.716247
0.712433
0.710908
0.711670
0.712433
0.713959
0.713196
0.713959
0.712433
0.713196
0.713959
0.714722
0.712433
0.712433
0.711670
0.711670
0.710908
0.712433
0.714722
0.710145
0.710145
0.712433
0.714722
0.715484
0.714722
0.712433
0.710145
0.710145
0.710908
0.711670
0.711670
0.710908
0.709382
0.709382
0.710908
0.712433
0.711670
0.710908
0.708619
0.710908
0.710908
0.712433
0.712433
0.713196
0.713196
0.714722
0.716247
0.717010
0.717773
0.720824
0.719298
0.722349
0.722349
0.724638
0.726163
0.726163
0.726163
0.726926
0.726926
0.729977
0.729977
0.728452
0.729214
0.729977
0.732265
0.732265
0.731503
0.731503
0.729977
0.730740
0.731503
0.731503
0.729977
0.727689
0.726163
0.725401
0.728452
0.729977
0.727689
0.727689
0.726926
0.726163
0.728452
0.730740
0.730740
0.728452
0.726926
0.726926
0.729214
0.728452
0.727689
0.726163
0.724638
0.723875
0.726163
0.725401
0.726163
0.725401
0.723112
0.723875
0.725401
0.725401
0.725401
0.723875
0.721587
0.722349
0.723875
0.724638
0.724638
0.723875
0.721587
0.723112
0.724638
0.728452
0.726163
0.724638
0.722349
0.723875
0.723875
0.724638
0.724638
0.720824
0.720061
0.722349
0.721587
0.723112
0.722349
0.723112
0.720824
0.721587
0.722349
0.723875
0.723875
0.723112
0.721587
0.723112
0.723875
0.723875
0.725401
0.724638
0.724638
0.726926
0.726163
0.727689
0.729977
0.727689
0.727689
0.729214
0.732265
0.736079
0.736079
0.734554
0.733028
0.735317
0.737605
0.737605
0.737605
0.737605
0.739893
0.739130
0.741419
0.743707
0.742944
0.741419
0.739893
0.738368
0.738368
0.740656
0.740656
0.740656
0.739130
0.739893
0.742182
0.744470
0.745995
0.744470
0.739130
0.733791
0.734554
0.732265
0.730740
0.727689
0.724638
0.723875
0.725401
0.724638
0.724638
0.724638
0.723112
0.722349
0.723112
0.724638
0.726163
0.724638
0.722349
0.723875
0.723875
0.723112
0.723112
0.720824
0.720061
0.720061
0.721587
0.721587
0.721587
0.720824
0.717773
0.716247
0.714722
0.708619
0.704805
0.700992
0.694127
0.688787
0.690313
0.704805
0.726163
0.745995
0.772693
0.811594
0.857361
0.892448
0.911518
0.908467
0.875667
0.815408
0.756674
0.717773
0.700992
0.702517
0.709382
0.714722
0.717773
0.717773
0.718535
0.719298
0.717773
0.717010
0.717773
0.720061
0.717773
0.717010
0.715484
0.717010
0.719298
0.718535
0.720061
0.717773
0.715484
0.717010
0.716247
0.719298
0.718535
0.717010
0.714722
0.715484
0.716247
0.717773
0.717010
0.716247
0.714722
0.716247
0.717010
0.718535
0.718535
0.717010
0.716247
0.717773
0.719298
0.720061
0.719298
0.720061
0.718535
0.717010
0.719298
0.720824
0.717773
0.718535
0.715484
0.716247
0.717773
0.717773
0.718535
0.717010
0.715484
0.716247
0.718535
0.718535
0.720061
0.719298
0.717773
0.717010
0.719298
0.720061
0.721587
0.720061
0.720061
0.719298
0.720824
0.721587
0.719298
0.720061
0.715484
0.715484
0.717010
0.717773
0.719298
0.716247
0.714722
0.715484
0.716247
0.717773
0.716247
0.716247
0.713959
0.714722
0.717773
0.717773
0.716247
0.715484
0.714722
0.718535
0.720824
0.722349
0.723875
0.723112
0.722349
0.723112
0.725401
0.728452
0.728452
0.726163
0.725401
0.728452
0.729214
0.731503
0.731503
0.730740
0.729214
0.729977
0.731503
0.733791
0.734554
0.733791
0.729977
0.730740
0.732265
0.733028
0.733791
0.733791
0.733028
0.734554
0.734554
0.736079
0.735317
0.733028
0.730740
0.730740
0.733028
0.734554
0.731503
0.729977
0.729977
0.729214
0.729977
0.732265
0.729214
0.726926
0.727689
0.726163
0.727689
0.729214
0.729977
0.728452
0.726163
0.727689
0.727689
0.728452
0.728452
0.726926
0.725401
0.726163
0.726163
0.726926
0.726163
0.724638
0.723875
0.722349
0.723875
0.724638
0.723112
0.722349
0.722349
0.723112
0.723112
0.724638
0.724638
0.723875
0.724638
0.724638
0.726163
0.726163
0.726926
0.723112
0.720061
0.720824
0.721587
0.723112
0.723112
0.721587
0.722349
0.724638
0.723875
0.725401
0.726163
0.725401
0.723112
0.723112
0.724638
0.723875
0.723112
0.721587
0.720824
0.721587
0.726926
0.727689
0.726163
0.723875
0.722349
0.723112
0.723875
0.727689
0.726926
0.726926
0.726926
0.728452
0.730740
0.733028
0.733791
0.731503
0.733028
0.735317
0.737605
0.740656
0.742182
0.739893
0.740656
0.740656
0.742182
0.742182
0.740656
0.739130
0.736842
0.739130
0.739130
0.737605
0.736079
0.735317
0.736842
0.739893
0.739130
0.736079
0.733791
0.728452
0.725401
0.724638
0.721587
0.722349
0.720824
0.718535
0.717773
0.719298
0.720824
0.720061
0.719298
0.720061
0.719298
0.718535
0.721587
0.720824
0.720824
0.717773
0.715484
0.715484
0.717773
0.718535
0.719298
0.718535
0.718535
0.717010
0.718535
0.717773
0.716247
0.711670
0.704805
0.703280
0.701754
0.701754
0.694127
0.687262
0.681159
0.683448
0.694127
0.708619
0.726163
0.745233
0.774981
0.817696
0.859649
0.889397
0.902365
0.890923
0.847445
0.790999
0.742944
0.713196
0.699466
0.697178
0.703280
0.707857
0.712433
0.712433
0.713196
0.713959
0.711670
0.712433
0.712433
0.713959
0.713959
0.713196
0.712433
0.711670
0.713196
0.714722
0.715484
0.713959
0.711670
0.713196
0.713196
0.713959
0.714722
0.710908
0.710908
0.711670
0.710145
0.712433
0.713196
0.709382
0.707094
0.710145
0.710908
0.710908
0.712433
0.712433
0.709382
0.710908
0.711670
0.713959
0.714722
0.713196
0.712433
0.714722
0.713959
0.713196
0.713196
0.712433
0.712433
0.713959
0.714722
0.713959
0.713196
0.711670
0.708619
0.710908
0.712433
0.714722
0.713959
0.713196
0.711670
0.712433
0.714722
0.714722
0.712433
0.712433
0.710908
0.711670
0.713959
0.715484
0.716247
0.714722
0.710908
0.710145
0.713196
0.713959
0.713959
0.709382
0.707857
0.706331
0.707857
0.708619
0.707094
0.706331
0.705568
0.706331
0.706331
0.706331
0.705568
0.705568
0.703280
0.705568
0.705568
0.708619
0.708619
0.710145
0.708619
0.710145
0.715484
0.718535
0.719298
0.720824
0.719298
0.720824
0.724638
0.726926
0.725401
0.724638
0.724638
0.723112
0.724638
0.726926
0.726163
0.724638
0.724638
0.726926
0.729214
0.731503
0.731503
0.729214
0.728452
0.726163
0.728452
0.728452
0.726926
0.726926
0.725401
0.724638
0.725401
0.724638
0.724638
0.723875
0.723875
0.725401
0.726163
0.726926
0.726926
0.726926
0.723875
0.723112
0.722349
0.725401
0.725401
0.723875
0.723112
0.722349
0.722349
0.724638
0.723112
0.720061
0.718535
0.720061
0.722349
0.723875
0.723112
0.721587
0.718535
0.720061
0.720824
0.721587
0.721587
0.721587
0.720061
0.720061
0.721587
0.722349
0.721587
0.720824
0.720824
0.720061
0.720061
0.722349
0.721587
0.720061
0.720061
0.721587
0.723112
0.724638
0.724638
0.723112
0.719298
0.721587
0.721587
0.723112
0.723112
0.723112
0.721587
0.723112
0.723112
0.723875
0.723112
0.721587
0.718535
0.719298
0.720824
0.720824
0.722349
0.719298
0.719298
0.722349
0.724638
0.729977
0.731503
0.731503
0.728452
0.729977
0.731503
0.732265
0.732265
0.733791
0.733791
0.735317
0.736842
0.738368
0.737605
0.736079
0.734554
0.736079
0.736842
0.737605
0.736842
0.735317
0.733028
0.733791
0.733791
0.736842
0.739130
0.738368
0.735317
0.732265
0.729214
0.729214
0.724638
0.720824
0.717010
0.717773
0.716247
0.717773
0.718535
0.717010
0.716247
0.716247
0.715484
0.717773
0.718535
0.716247
0.713959
0.713196
0.714722
0.717010
0.718535
0.717010
0.714722
0.716247
0.716247
0.717773
0.717010
0.715484
0.714722
0.712433
0.709382
0.706331
0.701754
0.699466
0.696415
0.691075
0.687262
0.686499
0.696415
0.713196
0.731503
0.754386
0.784897
0.821510
0.863463
0.893211
0.910755
0.911518
0.884821
0.830664
0.768116
0.721587
0.701754
0.696415
0.700229
0.706331
0.711670
0.711670
0.710145
0.710145
0.712433
0.713959
0.712433
0.713196
0.710145
0.713959
0.712433
0.714722
0.713959
0.712433
0.710908
0.709382
0.711670
0.711670
0.710908
0.708619
0.707094
0.708619
0.710145
0.711670
0.710908
0.710908
0.710908
0.710908
0.710145
0.712433
0.711670
0.710908
0.707857
0.709382
0.710908
0.710145
0.711670
0.710908
0.709382
0.711670
0.712433
0.711670
0.711670
0.711670
0.709382
0.707857
0.709382
0.711670
0.710908
0.709382
0.707857
0.709382
0.710145
0.711670
0.710908
0.710908
0.710145
0.709382
0.711670
0.713196
0.713196
0.712433
0.711670
0.712433
0.713959
0.716247
0.714722
0.713959
0.712433
0.711670
0.711670
0.712433
0.713196
0.710908
0.710908
0.709382
0.710145
0.710908
0.710908
0.708619
0.706331
0.707857
0.707857
0.708619
0.707094
0.706331
0.704805
0.706331
0.707094
0.706331
0.706331
0.707857
0.704805
0.704805
0.703280
0.707857
0.706331
0.706331
0.707094
0.708619
0.710145
0.713196
0.714722
0.716247
0.716247
0.717010
0.721587
0.723112
0.723875
0.724638
0.724638
0.724638
0.727689
0.729977
0.727689
0.727689
0.726926
0.729977
0.732265
0.732265
0.733028
0.731503
0.729977
0.730740
0.732265
0.732265
0.733791
0.730740
0.727689
0.728452
0.730740
0.730740
0.729214
0.729214
0.726926
0.726926
0.728452
0.729977
0.728452
0.727689
0.726163
0.727689
0.726163
0.727689
0.727689
0.727689
0.725401
0.724638
0.728452
0.730740
0.728452
0.727689
0.726926
0.726926
0.726926
0.729214
0.729977
0.725401
0.722349
0.722349
0.725401
0.725401
0.725401
0.725401
0.722349
0.720824
0.722349
0.723875
0.725401
0.723112
0.721587
0.723875
0.723112
0.725401
0.724638
0.724638
0.723112
0.723112
0.726926
0.725401
0.725401
0.724638
0.723112
0.723875
0.725401
0.725401
0.724638
0.724638
0.721587
0.722349
0.725401
0.726163
0.725401
0.723875
0.722349
0.721587
0.723112
0.724638
0.723875
0.721587
0.722349
0.722349
0.723875
0.724638
0.723875
0.722349
0.719298
0.722349
0.724638
0.724638
0.726163
0.723875
0.724638
0.723875
0.726926
0.729214
0.728452
0.729214
0.728452
0.731503
0.733791
0.734554
0.734554
0.735317
0.734554
0.735317
0.737605
0.740656
0.740656
0.739893
0.738368
0.739130
0.739130
0.740656
0.740656
0.739130
0.736079
0.736842
0.736842
0.739893
0.739130
0.737605
0.735317
0.736079
0.739893
0.744470
0.743707
0.741419
0.736079
0.733791
0.733028
0.731503
0.727689
0.725401
0.722349
0.723112
0.721587
0.724638
0.724638
0.723875
0.723112
0.721587
0.722349
0.721587
0.723112
0.721587
0.720061
0.719298
0.721587
0.722349
0.722349
0.720824
0.717773
0.719298
0.720061
0.722349
0.720061
0.720061
0.717010
0.717010
0.714722
0.712433
0.705568
0.701754
0.697178
0.696415
0.694889
0.692601
0.685736
0.680397
0.688024
0.704043
0.720824
0.744470
0.768116
0.798627
0.839817
0.881770
0.913044
0.926774
0.919909
0.881770
0.822273
0.759725
0.716247
0.701754
0.702517
0.706331
0.710145
0.713196
0.715484
0.714722
0.714722
0.712433
0.711670
0.712433
0.712433
0.713959
0.713196
0.711670
0.710908
0.710908
0.712433
0.712433
0.713196
0.712433
0.710145
0.711670
0.713959
0.714722
0.714722
0.713959
0.710908
0.711670
0.714722
0.713959
0.711670
0.712433
0.710908
0.710908
0.712433
0.713196
0.713959
0.711670
0.710145
0.711670
0.713196
0.713959
0.714722
0.713196
0.711670
0.713959
0.716247
0.715484
0.715484
0.713196
0.712433
0.715484
0.714722
0.716247
0.715484
0.714722
0.712433
0.712433
0.712433
0.714722
0.712433
0.713959
0.711670
0.713196
0.713959
0.714722
0.712433
0.711670
0.711670
0.713959
0.713959
0.717010
0.717010
0.715484
0.713196
0.713196
0.716247
0.716247
0.717010
0.717010
0.713959
0.714722
0.715484
0.716247
0.714722
0.713196
0.710908
0.711670
0.713196
0.714722
0.714722
0.712433
0.711670
0.711670
0.713196
0.714722
0.712433
0.711670
0.713196
0.711670
0.713959
0.715484
0.717773
0.716247
0.715484
0.718535
0.720824
0.723112
0.725401
0.725401
0.724638
0.724638
0.727689
0.729214
0.729977
0.728452
0.726926
0.728452
0.729214
0.730740
0.729214
0.729977
0.726926
0.729214
0.729977
0.732265
0.731503
0.729977
0.726926
0.730740
0.731503
0.731503
0.731503
0.731503
0.727689
0.729977
0.731503
0.732265
0.731503
0.729977
0.729977
0.729214
0.731503
0.731503
0.730740
0.729977
0.728452
0.726926
0.729214
0.728452
0.729214
0.726926
0.726163
0.725401
0.726163
0.726926
0.726926
0.725401
0.724638
0.725401
0.725401
0.726926
0.726926
0.726163
0.724638
0.724638
0.724638
0.726163
0.725401
0.725401
0.722349
0.722349
0.722349
0.723875
0.723112
0.721587
0.720061
0.720061
0.722349
0.722349
0.722349
0.721587
0.720061
0.719298
0.721587
0.723112
0.723112
0.721587
0.719298
0.720824
0.721587
0.722349
0.723112
0.723112
0.721587
0.723875
0.725401
0.725401
0.723875
0.723875
0.722349
0.722349
0.722349
0.725401
0.723875
0.723112
0.721587
0.722349
0.723875
0.726163
0.724638
0.723112
0.721587
0.721587
0.723875
0.725401
0.723875
0.726163
0.724638
0.726926
0.732265
0.733791
0.735317
0.735317
0.733791
0.733791
0.737605
0.739893
0.742182
0.739130
0.739130
0.739893
0.739130
0.739893
0.738368
0.736079
0.733791
0.734554
0.736079
0.737605
0.737605
0.736079
0.733028
0.733028
0.733791
0.735317
0.736842
0.736079
0.737605
0.740656
0.740656
0.736842
0.734554
0.731503
0.726926
0.725401
0.723875
0.723112
0.722349
0.722349
0.719298
0.720061
0.722349
0.722349
0.720824
0.720061
0.717010
0.718535
0.719298
0.720061
0.719298
0.718535
0.716247
0.717010
0.717010
0.720061
0.719298
0.717773
0.715484
0.715484
0.714722
0.711670
0.705568
0.698703
0.695652
0.691075
0.684973
0.684973
0.694889
0.713196
0.731503
0.752098
0.781083
0.818459
0.860412
0.890923
0.908467
0.911518
0.893974
0.855835
0.800153
0.752098
0.716247
0.699466
0.691838
0.691838
0.697178
0.704043
0.707857
0.710908
0.712433
0.713959
0.713959
0.714722
0.712433
0.712433
0.712433
0.713196
0.714722
0.712433
0.711670
0.710908
0.710145
0.714722
0.713196
0.712433
0.712433
0.710908
0.711670
0.713196
0.713196
0.710145
0.709382
0.712433
0.711670
0.716247
0.715484
0.715484
0.711670
0.713959
0.714722
0.716247
0.714722
0.714722
0.713196
0.712433
0.713959
0.713959
0.714722
0.713959
0.713959
0.713196
0.716247
0.717010
0.717773
0.716247
0.713196
0.712433
0.714722
0.716247
0.715484
0.712433
0.712433
0.713959
0.712433
0.716247
0.714722
0.713196
0.712433
0.713196
0.713959
0.716247
0.715484
0.712433
0.712433
0.713196
0.715484
0.715484
0.714722
0.714722
0.713196
0.713196
0.715484
0.716247
0.715484
0.713196
0.714722
0.715484
0.715484
0.716247
0.717010
0.716247
0.713959
0.713959
0.714722
0.714722
0.714722
0.713959
0.711670
0.711670
0.714722
0.716247
0.715484
0.715484
0.713959
0.715484
0.715484
0.717010
0.717010
0.715484
0.716247
0.717773
0.722349
0.723875
0.725401
0.725401
0.724638
0.726926
0.725401
0.727689
0.729214
0.728452
0.728452
0.727689
0.726926
0.728452
0.729977
0.729977
0.728452
0.728452
0.729214
0.730740
0.729977
0.726926
0.726163
0.726163
0.726926
0.728452
0.729214
0.728452
0.727689
0.726926
0.729214
0.729214
0.729214
0.727689
0.723875
0.726163
0.726926
0.729214
0.728452
0.726163
0.722349
0.723875
0.725401
0.726163
0.725401
0.722349
0.720824
0.720824
0.723112
0.723112
0.723875
0.723112
0.720061
0.720824
0.723875
0.723875
0.722349
0.720824
0.720061
0.718535
0.721587
0.722349
0.723112
0.721587
0.717773
0.718535
0.720061
0.720824
0.722349
0.720061
0.717010
0.716247
0.717773
0.718535
0.718535
0.715484
0.715484
0.715484
0.717010
0.717010
0.717773
0.717010
0.717010
0.717773
0.717773
0.720061
0.721587
0.720061
0.718535
0.717773
0.719298
0.720061
0.720061
0.718535
0.717010
0.717010
0.718535
0.720061
0.717773
0.717010
0.715484
0.716247
0.718535
0.720824
0.723112
0.723875
0.724638
0.726926
0.728452
0.729977
0.729977
0.729977
0.729977
0.733791
0.735317
0.734554
0.736079
0.736842
0.735317
0.735317
0.736079
0.736079
0.734554
0.733028
0.730740
0.731503
0.731503
0.732265
0.733028
0.730740
0.726926
0.728452
0.732265
0.736079
0.734554
0.731503
0.723875
0.723112
0.722349
0.720824
0.719298
0.717010
0.714722
0.715484
0.717010
0.719298
0.720061
0.717773
0.714722
0.713959
0.712433
0.715484
0.713959
0.713196
0.712433
0.711670
0.712433
0.714722
0.713959
0.712433
0.710908
0.713196
0.713959
0.714722
0.715484
0.714722
0.710908
0.706331
0.703280
0.700992
0.697178
0.690313
0.682685
0.682685
0.696415
0.714722
0.734554
0.760488
0.797101
0.842105
0.881007
0.902365
0.901602
0.872616
0.816171
0.758963
0.720061
0.701754
0.695652
0.697178
0.704043
0.710145
0.710908
0.711670
0.711670
0.712433
0.710145
0.710908
0.710145
0.709382
0.709382
0.709382
0.706331
0.707094
0.709382
0.710145
0.710908
0.710145
0.709382
0.707857
0.708619
0.710145
0.711670
0.708619
0.707857
0.710908
0.712433
0.713959
0.713196
0.713196
0.710908
0.711670
0.711670
0.710145
0.711670
0.707857
0.710145
0.710145
0.711670
0.711670
0.710908
0.708619
0.707857
0.709382
0.710145
0.711670
0.710145
0.712433
0.711670
0.712433
0.714722
0.715484
0.713959
0.713196
0.711670
0.711670
0.712433
0.713959
0.714722
0.711670
0.710145
0.711670
0.713959
0.713959
0.713959
0.713959
0.710908
0.711670
0.712433
0.715484
0.714722
0.711670
0.708619
0.708619
0.709382
0.710908
0.709382
0.710145
0.707094
0.706331
0.710145
0.710908
0.710908
0.708619
0.706331
0.704805
0.705568
0.707094
0.709382
0.707094
0.704805
0.704805
0.706331
0.708619
0.708619
0.710145
0.707857
0.711670
0.713196
0.716247
0.718535
0.719298
0.717010
0.717010
0.720061
0.723875
0.726163
0.726163
0.723875
0.726163
0.728452
0.731503
0.731503
0.729214
0.728452
0.726163
0.726926
0.726926
0.726926
0.725401
0.726163
0.726926
0.730740
0.729977
0.727689
0.728452
0.726163
0.726926
0.724638
0.729214
0.729977
0.729977
0.728452
0.727689
0.727689
0.729214
0.728452
0.726163
0.725401
0.726163
0.727689
0.727689
0.727689
0.725401
0.723112
0.723875
0.724638
0.724638
0.725401
0.725401
0.723875
0.723112
0.723875
0.724638
0.723875
0.721587
0.718535
0.720061
0.721587
0.725401
0.724638
0.723875
0.721587
0.722349
0.723875
0.725401
0.723875
0.720824
0.719298
0.719298
0.720824
0.721587
0.720061
0.720061
0.720061
0.719298
0.719298
0.721587
0.721587
0.720824
0.720061
0.718535
0.720061
0.722349
0.723875
0.720824
0.720824
0.720824
0.722349
0.723112
0.722349
0.723112
0.723112
0.723112
0.724638
0.723112
0.724638
0.723112
0.722349
0.720061
0.723875
0.725401
0.728452
0.726926
0.727689
0.727689
0.730740
0.733028
0.733791
0.734554
0.733028
0.733028
0.735317
0.739130
0.738368
0.737605
0.736842
0.737605
0.739893
0.739893
0.739130
0.739130
0.737605
0.736842
0.736079
0.737605
0.737605
0.737605
0.735317
0.735317
0.736079
0.736842
0.739893
0.739893
0.737605
0.735317
0.733028
0.732265
0.730740
0.726163
0.721587
0.720824
0.717773
0.720824
0.720061
0.720824
0.719298
0.717773
0.720061
0.719298
0.720061
0.719298
0.719298
0.718535
0.719298
0.720061
0.718535
0.717010
0.715484
0.716247
0.717010
0.719298
0.717010
0.717773
0.714722
0.713196
0.709382
0.704805
0.701754
0.697940
0.690313
0.685736
0.691075
0.706331
0.729214
0.751335
0.778795
0.818459
0.860412
0.894737
0.916095
0.915332
0.884821
0.830664
0.768879
0.726926
0.704805
0.697178
0.699466
0.707094
0.711670
0.713959
0.713196
0.713959
0.713196
0.713959
0.715484
0.716247
0.717773
0.714722
0.712433
0.713196
0.715484
0.716247
0.715484
0.713959
0.710908
0.711670
0.710908
0.711670
0.713959
0.712433
0.711670
0.710908
0.712433
0.714722
0.715484
0.713959
0.710908
0.710908
0.712433
0.713959
0.714722
0.714722
0.713959
0.713959
0.716247
0.716247
0.715484
0.714722
0.713196
0.713196
0.713959
0.714722
0.711670
0.713959
0.711670
0.713196
0.712433
0.713959
0.713959
0.713196
0.712433
0.713196
0.714722
0.715484
0.716247
0.715484
0.713959
0.714722
0.716247
0.715484
0.717773
0.714722
0.712433
0.713959
0.715484
0.716247
0.717010
0.714722
0.713196
0.713959
0.714722
0.715484
0.713959
0.711670
0.710908
0.709382
0.711670
0.711670
0.710145
0.709382
0.707094
0.707094
0.708619
0.708619
0.708619
0.709382
0.707857
0.708619
0.708619
0.710908
0.710145
0.709382
0.710145
0.710145
0.712433
0.713196
0.715484
0.714722
0.714722
0.716247
0.720061
0.723112
0.725401
0.725401
0.721587
0.725401
0.725401
0.729214
0.728452
0.730740
0.727689
0.729977
0.732265
0.731503
0.732265
0.733028
0.729977
0.730740
0.732265
0.733028
0.733791
0.733028
0.731503
0.730740
0.733028
0.732265
0.732265
0.732265
0.729977
0.728452
0.730740
0.730740
0.731503
0.729977
0.728452
0.729977
0.731503
0.731503
0.729977
0.729977
0.728452
0.728452
0.728452
0.730740
0.731503
0.729214
0.729977
0.729977
0.731503
0.733028
0.733028
0.729977
0.729214
0.729214
0.730740
0.729214
0.731503
0.729977
0.726926
0.727689
0.729214
0.729977
0.729214
0.729214
0.726163
0.725401
0.726926
0.727689
0.728452
0.728452
0.726926
0.723875
0.728452
0.729214
0.726926
0.727689
0.725401
0.727689
0.726926
0.729214
0.727689
0.727689
0.727689
0.726926
0.730740
0.729977
0.729977
0.729214
0.726163
0.727689
0.729214
0.729977
0.728452
0.728452
0.726163
0.726163
0.726926
0.728452
0.727689
0.723875
0.722349
0.726163
0.726926
0.729214
0.728452
0.727689
0.725401
0.726163
0.728452
0.729214
0.729214
0.729214
0.728452
0.729977
0.731503
0.736842
0.738368
0.737605
0.736079
0.736842
0.739130
0.739130
0.741419
0.742944
0.741419
0.743707
0.745995
0.745995
0.744470
0.744470
0.742944
0.740656
0.742944
0.743707
0.745233
0.742944
0.738368
0.739893
0.744470
0.747521
0.749046
0.745233
0.737605
0.736842
0.733028
0.733791
0.733791
0.729214
0.726163
0.728452
0.728452
0.729214
0.725401
0.726926
0.723112
0.725401
0.726926
0.726163
0.726926
0.726163
0.723875
0.723112
0.724638
0.725401
0.726163
0.726163
0.723875
0.723875
0.723875
0.726926
0.725401
0.725401
0.721587
0.717773
0.715484
0.709382
0.704805
0.700992
0.692601
0.689550
0.695652
0.713196
0.734554
0.756674
0.780320
0.816171
0.862700
0.902365
0.931350
0.941266
0.929825
0.890160
0.822273
0.758963
0.718535
0.701754
0.704805
0.714722
0.721587
0.721587
0.720061
0.718535
0.717010
0.717773
0.719298
0.718535
0.717773
0.717010
0.714722
0.714722
0.716247
0.717010
0.716247
0.715484
0.714722
0.715484
0.716247
0.718535
0.717773
0.717010
0.715484
0.714722
0.715484
0.716247
0.715484
0.713959
0.713959
0.713959
0.715484
0.717010
0.716247
0.716247
0.714722
0.715484
0.714722
0.715484
0.716247
0.715484
0.714722
0.716247
0.717010
0.717010
0.717010
0.717010
0.713959
0.714722
0.715484
0.716247
0.714722
0.713959
0.713196
0.714722
0.714722
0.716247
0.716247
0.714722
0.713196
0.714722
0.713196
0.717010
0.716247
0.715484
0.713959
0.714722
0.717010
0.717010
0.717010
0.717773
0.715484
0.715484
0.715484
0.717773
0.716247
0.714722
0.712433
0.713196
0.713959
0.714722
0.713959
0.714722
0.713196
0.713959
0.713959
0.716247
0.716247
0.716247
0.715484
0.714722
0.718535
0.720824
0.720824
0.721587
0.722349
0.721587
0.723112
0.726926
0.729214
0.727689
0.728452
0.729214
0.732265
0.733791
0.735317
0.734554
0.730740
0.731503
0.732265
0.732265
0.734554
0.731503
0.731503
0.733028
0.732265
0.733028
0.733028
0.732265
0.730740
0.731503
0.732265
0.733028
0.733791
0.733028
0.730740
0.732265
0.730740
0.732265
0.732265
0.729214
0.727689
0.728452
0.729977
0.729977
0.729214
0.729977
0.728452
0.726163
0.728452
0.729977
0.728452
0.726926
0.724638
0.726163
0.726926
0.728452
0.726926
0.726926
0.725401
0.726926
0.726926
0.727689
0.726926
0.726163
0.723112
0.724638
0.725401
0.726163
0.725401
0.723112
0.723112
0.722349
0.724638
0.725401
0.726163
0.725401
0.723875
0.723875
0.724638
0.726163
0.726926
0.725401
0.724638
0.724638
0.726163
0.726926
0.727689
0.726926
0.723875
0.726926
0.726926
0.729214
0.729214
0.726926
0.725401
0.725401
0.727689
0.727689
0.727689
0.726926
0.725401
0.724638
0.727689
0.728452
0.728452
0.727689
0.726163
0.727689
0.731503
0.732265
0.736079
0.736079
0.733791
0.737605
0.738368
0.740656
0.742944
0.741419
0.740656
0.742182
0.744470
0.746758
0.745995
0.743707
0.740656
0.740656
0.740656
0.739893
0.742182
0.741419
0.739130
0.737605
0.739130
0.741419
0.746758
0.745995
0.742944
0.737605
0.735317
0.737605
0.735317
0.731503
0.728452
0.728452
0.729977
0.731503
0.732265
0.730740
0.727689
0.726926
0.726163
0.726926
0.726163
0.725401
0.723875
0.723112
0.723875
0.724638
0.724638
0.724638
0.720824
0.720824
0.722349
0.721587
0.721587
0.723112
0.721587
0.723112
0.722349
0.724638
0.723112
0.720061
0.716247
0.710908
0.704805
0.704043
0.698703
0.690313
0.687262
0.699466
0.721587
0.746758
0.777269
0.816934
0.858886
0.894737
0.910755
0.897025
0.849733
0.784134
0.727689
0.700229
0.700992
0.710908
0.717773
0.720824
0.717773
0.717773
0.718535
0.721587
0.722349
0.720061
0.716247
0.716247
0.717773
0.717773
0.719298
0.716247
0.716247
0.717010
0.717010
0.717010
0.718535
0.717010
0.716247
0.716247
0.718535
0.720061
0.720824
0.720061
0.718535
0.717773
0.719298
0.720824
0.722349
0.719298
0.718535
0.720061
0.719298
0.721587
0.721587
0.721587
0.720061
0.719298
0.720824
0.720061
0.720061
0.720061
0.717010
0.717773
0.720061
0.720824
0.720061
0.718535
0.718535
0.720061
0.720061
0.722349
0.720824
0.719298
0.717773
0.718535
0.719298
0.722349
0.721587
0.720824
0.719298
0.721587
0.722349
0.721587
0.720824
0.718535
0.717773
0.717010
0.719298
0.720824
0.720061
0.717773
0.715484
0.715484
0.717010
0.718535
0.717010
0.714722
0.716247
0.715484
0.716247
0.717773
0.717773
0.716247
0.716247
0.717010
0.719298
0.720824
0.720061
0.719298
0.716247
0.718535
0.720824
0.721587
0.722349
0.723112
0.723875
0.724638
0.726926
0.727689
0.728452
0.727689
0.726163
0.727689
0.730740
0.730740
0.733028
0.729214
0.726926
0.728452
0.730740
0.731503
0.731503
0.731503
0.728452
0.729214
0.731503
0.731503
0.731503
0.729214
0.725401
0.727689
0.727689
0.726926
0.725401
0.723112
0.723112
0.723875
0.726163
0.727689
0.726926
0.723875
0.723112
0.725401
0.723875
0.726163
0.725401
0.724638
0.724638
0.723875
0.725401
0.726163
0.726163
0.723875
0.724638
0.723112
0.723112
0.723112
0.723875
0.719298
0.720061
0.720824
0.722349
0.724638
0.723112
0.722349
0.719298
0.719298
0.720824
0.720061
0.719298
0.718535
0.719298
0.719298
0.720061
0.721587
0.722349
0.720824
0.718535
0.717773
0.720061
0.720061
0.721587
0.720824
0.717773
0.720061
0.720061
0.720061
0.720061
0.720061
0.717010
0.718535
0.717773
0.719298
0.722349
0.721587
0.720824
0.721587
0.723875
0.723875
0.723112
0.721587
0.720824
0.723112
0.723112
0.728452
0.729977
0.728452
0.729977
0.728452
0.731503
0.732265
0.732265
0.729977
0.728452
0.730740
0.733791
0.733791
0.735317
0.733791
0.733028
0.735317
0.736842
0.736842
0.734554
0.734554
0.733791
0.733028
0.734554
0.735317
0.732265
0.732265
0.733028
0.735317
0.737605
0.736079
0.730740
0.728452
0.723112
0.720824
0.720061
0.720824
0.717010
0.714722
0.713196
0.713196
0.713959
0.715484
0.716247
0.714722
0.713196
0.714722
0.716247
0.717773
0.716247
0.713959
0.713196
0.712433
0.714722
0.715484
0.716247
0.716247
0.713196
0.712433
0.713196
0.713959
0.709382
0.704043
0.697940
0.694127
0.690313
0.682685
0.678871
0.683448
0.694127
0.709382
0.724638
0.736842
0.752098
0.770404
0.794050
0.826850
0.859649
0.887872
0.906178
0.909230
0.886346
0.832189
0.774981
0.729977
0.701754
0.691075
0.692601
0.700229
0.706331
0.708619
0.709382
0.707094
0.706331
0.707857
0.708619
0.709382
0.708619
0.707857
0.704805
0.704043
0.704043
0.707094
0.708619
0.707094
0.704805
0.704805
0.707094
0.709382
0.707094
0.705568
0.705568
0.705568
0.707857
0.707857
0.710908
0.710908
0.709382
0.708619
0.707857
0.708619
0.706331
0.706331
0.704043
0.704805
0.707094
0.707857
0.707094
0.707857
0.704805
0.705568
0.707857
0.708619
0.708619
0.709382
0.706331
0.708619
0.707857
0.709382
0.707094
0.707857
0.706331
0.707094
0.706331
0.706331
0.705568
0.704805
0.702517
0.702517
0.705568
0.707094
0.710145
0.708619
0.706331
0.705568
0.704805
0.705568
0.704805
0.703280
0.704043
0.703280
0.704805
0.704043
0.703280
0.700992
0.697940
0.698703
0.700229
0.700229
0.699466
0.697178
0.695652
0.697940
0.698703
0.699466
0.700229
0.698703
0.697940
0.697178
0.700229
0.700992
0.702517
0.704805
0.703280
0.706331
0.710145
0.711670
0.713959
0.713959
0.712433
0.716247
0.718535
0.720061
0.719298
0.718535
0.719298
0.720061
0.722349
0.722349
0.723112
0.721587
0.719298
0.720061
0.722349
0.723112
0.723112
0.723112
0.720061
0.720824
0.723112
0.725401
0.726163
0.722349
0.720061
0.720061
0.720824
0.723112
0.722349
0.721587
0.720824
0.720824
0.721587
0.723112
0.722349
0.720824
0.719298
0.720061
0.719298
0.720824
0.719298
0.719298
0.717010
0.718535
0.719298
0.720061
0.719298
0.717010
0.714722
0.716247
0.716247
0.718535
0.717010
0.716247
0.715484
0.715484
0.716247
0.720061
0.717773
0.716247
0.715484
0.714722
0.717010
0.717773
0.717010
0.716247
0.715484
0.714722
0.716247
0.716247
0.715484
0.714722
0.713196
0.713196
0.714722
0.716247
0.716247
0.713959
0.713196
0.713959
0.715484
0.716247
0.717773
0.714722
0.713959
0.714722
0.716247
0.717010
0.717773
0.714722
0.715484
0.714722
0.717010
0.717773
0.716247
0.716247
0.715484
0.714722
0.717010
0.717010
0.717773
0.717010
0.714722
0.715484
0.717773
0.721587
0.723112
0.722349
0.722349
0.723875
0.723112
0.727689
0.729977
0.729977
0.730740
0.729977
0.732265
0.734554
0.736842
0.735317
0.731503
0.731503
0.731503
0.732265
0.729977
0.730740
0.728452
0.728452
0.729214
0.728452
0.729977
0.731503
0.731503
0.732265
0.729214
0.728452
0.726163
0.723112
0.718535
0.717010
0.717773
0.718535
0.717773
0.715484
0.714722
0.714722
0.714722
0.714722
0.715484
0.714722
0.712433
0.710908
0.712433
0.714722
0.713959
0.713196
0.711670
0.711670
0.712433
0.712433
0.713196
0.713196
0.709382
0.710145
0.711670
0.713196
0.712433
0.713196
0.710908
0.709382
0.706331
0.701754
0.698703
0.694889
0.688024
0.683448
0.683448
0.694889
0.713196
0.733028
0.756674
0.790237
0.832952
0.872616
0.900839
0.910755
0.893974
0.850496
0.793288
0.741419
0.707094
0.694127
0.692601
0.696415
0.704043
0.705568
0.708619
0.707094
0.707094
0.706331
0.707094
0.709382
0.708619
0.706331
0.705568
0.704805
0.704043
0.706331
0.705568
0.704805
0.705568
0.705568
0.705568
0.708619
0.708619
0.706331
0.705568
0.706331
0.707857
0.707857
0.707857
0.706331
0.704805
0.704805
0.707857
0.708619
0.707094
0.707857
0.704043
0.707094
0.707857
0.710145
0.707857
0.706331
0.705568
0.706331
0.707094
0.707094
0.708619
0.706331
0.705568
0.704805
0.706331
0.707857
0.707094
0.705568
0.704805
0.707094
0.707094
0.708619
0.707857
0.707094
0.705568
0.704805
0.706331
0.707094
0.707094
0.705568
0.704805
0.705568
0.707094
0.708619
0.709382
0.707094
0.706331
0.707857
0.704805
0.707094
0.708619
0.706331
0.704043
0.705568
0.704805
0.705568
0.704805
0.701754
0.700229
0.700992
0.702517
0.704043
0.702517
0.702517
0.700229
0.700992
0.703280
0.704043
0.704043
0.704043
0.700229
0.701754
0.702517
0.706331
0.706331
0.705568
0.704043
0.706331
0.710908
0.713196
0.715484
0.715484
0.715484
0.719298
0.718535
0.721587
0.720061
0.720824
0.720061
0.721587
0.722349
0.723875
0.723875
0.723112
0.723875
0.723875
0.725401
0.725401
0.725401
0.725401
0.721587
0.723875
0.724638
0.725401
0.725401
0.724638
0.721587
0.723112
0.725401
0.725401
0.724638
0.721587
0.721587
0.721587
0.723112
0.724638
0.723112
0.722349
0.720061
0.720824
0.721587
0.722349
0.721587
0.720824
0.719298
0.718535
0.720824
0.721587
0.720061
0.719298
0.720824
0.719298
0.721587
0.723112
0.723112
0.722349
0.720824
0.720824
0.720824
0.720824
0.721587
0.720061
0.719298
0.720061
0.720061
0.720824
0.720824
0.720061
0.717010
0.719298
0.717773
0.721587
0.719298
0.719298
0.717773
0.717773
0.719298
0.720824
0.720824
0.719298
0.717010
0.718535
0.720061
0.722349
0.722349
0.720824
0.717773
0.718535
0.720061
0.722349
0.721587
0.721587
0.718535
0.718535
0.720824
0.719298
0.720824
0.718535
0.717773
0.718535
0.719298
0.720061
0.720824
0.720061
0.717773
0.718535
0.720824
0.721587
0.720824
0.722349
0.723112
0.725401
0.728452
0.732265
0.733028
0.733028
0.729214
0.729214
0.733028
0.733791
0.733791
0.732265
0.733028
0.733028
0.736079
0.736842
0.736842
0.737605
0.734554
0.734554
0.735317
0.735317
0.733791
0.731503
0.729977
0.731503
0.732265
0.733791
0.733028
0.733028
0.733791
0.738368
0.739893
0.737605
0.733028
0.729214
0.725401
0.725401
0.723875
0.722349
0.721587
0.716247
0.714722
0.716247
0.717773
0.718535
0.719298
0.717773
0.715484
0.715484
0.717010
0.717773
0.718535
0.717773
0.713959
0.715484
0.717773
0.718535
0.717010
0.716247
0.714722
0.715484
0.714722
0.716247
0.713959
0.710145
0.702517
0.697178
0.696415
0.694127
0.688787
0.683448
0.681922
0.690313
0.709382
0.731503
0.753623
0.780320
0.816171
0.859649
0.896262
0.916095
0.922960
0.908467
0.867277
0.805492
0.750572
0.717773
0.699466
0.695652
0.695652
0.701754
0.707094
0.713196
0.714722
0.713959
0.713196
0.711670
0.711670
0.712433
0.711670
0.709382
0.707094
0.707094
0.707857
0.708619
0.707857
0.707857
0.706331
0.706331
0.706331
0.707857
0.709382
0.707857
0.705568
0.706331
0.707857
0.710908
0.710908
0.711670
0.707857
0.707857
0.710908
0.711670
0.711670
0.710908
0.706331
0.708619
0.708619
0.710145
0.712433
0.710145
0.708619
0.709382
0.710145
0.711670
0.712433
0.711670
0.709382
0.708619
0.711670
0.713196
0.713196
0.712433
0.709382
0.710145
0.711670
0.712433
0.713196
0.710908
0.708619
0.708619
0.710145
0.712433
0.712433
0.708619
0.709382
0.709382
0.709382
0.710908
0.712433
0.709382
0.709382
0.708619
0.710145
0.712433
0.713196
0.710145
0.709382
0.709382
0.711670
0.710145
0.712433
0.710908
0.710145
0.708619
0.710908
0.711670
0.710908
0.709382
0.707857
0.707857
0.708619
0.710145
0.710145
0.708619
0.708619
0.707094
0.709382
0.711670
0.710908
0.710145
0.709382
0.708619
0.712433
0.713959
0.715484
0.715484
0.714722
0.717010
0.720824
0.722349
0.723875
0.724638
0.724638
0.725401
0.726926
0.729214
0.727689
0.726163
0.723875
0.726163
0.727689
0.728452
0.728452
0.726163
0.725401
0.725401
0.726926
0.726926
0.726926
0.726163
0.723875
0.725401
0.725401
0.726926
0.727689
0.726163
0.726163
0.726926
0.726926
0.729977
0.728452
0.727689
0.724638
0.724638
0.724638
0.726163
0.725401
0.723112
0.722349
0.722349
0.725401
0.725401
0.726163
0.725401
0.723112
0.723112
0.724638
0.726926
0.726926
0.725401
0.724638
0.723875
0.725401
0.727689
0.726926
0.723112
0.722349
0.723112
0.725401
0.724638
0.723112
0.723875
0.720061
0.721587
0.721587
0.723875
0.723875
0.721587
0.720061
0.719298
0.720824
0.720824
0.720824
0.720061
0.720061
0.719298
0.721587
0.723875
0.723875
0.721587
0.720824
0.722349
0.722349
0.722349
0.723112
0.723112
0.720061
0.721587
0.721587
0.723875
0.723112
0.721587
0.720061
0.721587
0.721587
0.722349
0.722349
0.721587
0.720824
0.721587
0.721587
0.723875
0.723112
0.723875
0.722349
0.722349
0.723112
0.723875
0.724638
0.723112
0.723875
0.723112
0.725401
0.728452
0.729214
0.727689
0.728452
0.731503
0.733028
0.733028
0.734554
0.733028
0.733028
0.734554
0.736842
0.738368
0.739893
0.739893
0.737605
0.738368
0.738368
0.739130
0.739130
0.736842
0.735317
0.736842
0.737605
0.739130
0.739130
0.736842
0.737605
0.740656
0.742944
0.741419
0.736842
0.733028
0.729214
0.724638
0.723875
0.724638
0.724638
0.721587
0.720061
0.720061
0.721587
0.722349
0.721587
0.719298
0.717773
0.719298
0.719298
0.720061
0.722349
0.720824
0.717773
0.718535
0.720061
0.720824
0.719298
0.717010
0.717010
0.716247
0.717773
0.718535
0.717773
0.713959
0.707094
0.701754
0.698703
0.697178
0.692601
0.684973
0.677346
0.675057
0.678871
0.682685
0.690313
0.700992
0.710145
0.721587
0.730740
0.746758
0.773455
0.809306
0.848208
0.883295
0.904653
0.906941
0.881770
0.835240
0.775744
0.727689
0.704805
0.700229
0.704043
0.709382
0.711670
0.712433
0.712433
0.714722
0.715484
0.713959
0.712433
0.711670
0.711670
0.713959
0.714722
0.713959
0.712433
0.712433
0.713959
0.716247
0.716247
0.716247
0.711670
0.711670
0.715484
0.716247
0.713959
0.713959
0.712433
0.713196
0.714722
0.716247
0.717010
0.715484
0.714722
0.715484
0.714722
0.715484
0.715484
0.713196
0.712433
0.712433
0.714722
0.715484
0.716247
0.716247
0.714722
0.714722
0.717773
0.717010
0.715484
0.714722
0.713196
0.713196
0.713959
0.713959
0.713959
0.713959
0.713959
0.712433
0.714722
